CSV File for the Network on Day 110
1 - Minute m 
2 - Power Consumed at minute m 
3 - Power Produced at minute m 
4 - Energy Consumed since the beginning of the day 
5 - Energy Produced since the beginning of the day 
6 - Energy Lost since the beginning of the day 
 
0 ; 3.888040969014184E7 ; 6.353242420385114E8 ; 0.0 ; 0.0 ; 0.0
1 ; 3.8908145950551614E7 ; 6.362351579202573E8 ; 3.888040969014184E7 ; 6.353242420385114E8 ; 0.0
2 ; 3.8960634825321265E7 ; 6.38999458445345E8 ; 7.778855564069346E7 ; 1.2715593999587688E9 ; 0.0
3 ; 3.901332330793461E7 ; 6.43617159004338E8 ; 1.1674919046601471E8 ; 1.9105588584041138E9 ; 0.0
4 ; 3.906271348552671E7 ; 6.500882733778769E8 ; 1.5576251377394933E8 ; 2.554176017408452E9 ; 0.0
5 ; 3.913327838104657E7 ; 6.584128136644111E8 ; 1.9482522725947604E8 ; 3.204264290786329E9 ; 0.0
6 ; 3.922582163856737E7 ; 6.685907902156056E8 ; 2.339585056405226E8 ; 3.86267710445074E9 ; 0.0
7 ; 3.935771932490954E7 ; 6.806222115802236E8 ; 2.7318432727909E8 ; 4.531267894666346E9 ; 0.0
8 ; 3.95420868367178E7 ; 6.945070844571834E8 ; 3.125420466039995E8 ; 5.211890106246569E9 ; 0.0
9 ; 3.9827138709346324E7 ; 7.102454136583979E8 ; 3.520841334407173E8 ; 5.9063971907037525E9 ; 0.0
10 ; 4.026558130256223E7 ; 7.278372020818751E8 ; 3.9191127215006363E8 ; 6.61664260436215E9 ; 0.0
11 ; 4.09544734227356E7 ; 7.472824506954352E8 ; 4.321768534526259E8 ; 7.344479806444025E9 ; 0.0
12 ; 4.205906159345869E7 ; 7.685811585312576E8 ; 4.7313132687536144E8 ; 8.091762257139461E9 ; 0.0
13 ; 4.312481324234021E7 ; 7.917333226913347E8 ; 5.1519038846882015E8 ; 8.86034341567072E9 ; 0.0
14 ; 4.325281919413023E7 ; 8.167389383637538E8 ; 5.583152017111604E8 ; 9.652076738362053E9 ; 0.0
15 ; 4.330966515575842E7 ; 8.435979988495961E8 ; 6.015680209052906E8 ; 1.0468815676725807E10 ; 0.0
16 ; 4.3363434342552446E7 ; 8.723104956000992E8 ; 6.44877686061049E8 ; 1.1312413675575403E10 ; 0.0
17 ; 4.341476597372635E7 ; 9.028764182635972E8 ; 6.882411204036014E8 ; 1.2184724171175503E10 ; 0.0
18 ; 4.346278946121513E7 ; 9.352957547416413E8 ; 7.316558863773278E8 ; 1.30876005894391E10 ; 0.0
19 ; 4.35165026095206E7 ; 9.695684912535906E8 ; 7.751186758385429E8 ; 1.4022896344180742E10 ; 0.0
20 ; 4.3565951798393436E7 ; 1.0056946124088815E9 ; 8.186351784480635E8 ; 1.4992464835434334E10 ; 0.0
21 ; 4.362225816937941E7 ; 1.0436741012861067E9 ; 8.62201130246457E8 ; 1.5998159447843216E10 ; 0.0
22 ; 4.367178989033214E7 ; 1.0835069395179842E9 ; 9.058233884158363E8 ; 1.7041833549129322E10 ; 0.0
23 ; 4.372877610422196E7 ; 1.1251931073812613E9 ; 9.494951783061684E8 ; 1.8125340488647305E10 ; 0.0
24 ; 4.377905340944215E7 ; 1.1687325838905768E9 ; 9.932239544103904E8 ; 1.9250533596028564E10 ; 0.0
25 ; 4.382231464571767E7 ; 1.206253592284418E9 ; 1.0370030078198326E9 ; 2.041926617991914E10 ; 0.0
26 ; 4.388129742953141E7 ; 1.2062773963453786E9 ; 1.0808253224655502E9 ; 2.162551977220356E10 ; 0.0
27 ; 4.393803080494018E7 ; 1.2063025876495733E9 ; 1.1247066198950815E9 ; 2.283179716854894E10 ; 0.0
28 ; 4.3982261009597115E7 ; 1.2063291411474948E9 ; 1.1686446507000217E9 ; 2.4038099756198513E10 ; 0.0
29 ; 4.40302597503526E7 ; 1.2063570310231118E9 ; 1.2126269117096188E9 ; 2.524442889734601E10 ; 0.0
30 ; 4.4085654090641625E7 ; 1.206386230792142E9 ; 1.2566571714599714E9 ; 2.645078592836912E10 ; 0.0
31 ; 4.413375563430953E7 ; 1.2064167133982785E9 ; 1.3007428255506132E9 ; 2.7657172159161263E10 ; 0.0
32 ; 4.417880176404455E7 ; 1.2064484513067622E9 ; 1.3448765811849227E9 ; 2.886358887255954E10 ; 0.0
33 ; 4.423041833463997E7 ; 1.2064814165947604E9 ; 1.3890553829489672E9 ; 3.0070037323866302E10 ; 0.0
34 ; 4.427302546478439E7 ; 1.2065155810381017E9 ; 1.4332858012836072E9 ; 3.1276518740461063E10 ; 0.0
35 ; 4.431661073301776E7 ; 1.2065509161939855E9 ; 1.4775588267483916E9 ; 3.2483034321499165E10 ; 0.0
36 ; 4.435701849524142E7 ; 1.206587393479371E9 ; 1.5218754374814093E9 ; 3.368958523769315E10 ; 0.0
37 ; 4.4394681235638514E7 ; 1.2066249842448156E9 ; 1.5662324559766507E9 ; 3.489617263117252E10 ; 0.0
38 ; 4.444939001708755E7 ; 1.2066636598436017E9 ; 1.6106271372122893E9 ; 3.6102797615417336E10 ; 0.0
39 ; 4.447920143349975E7 ; 1.2067033916960647E9 ; 1.6550765272293768E9 ; 3.730946127526094E10 ; 0.0
40 ; 4.45106232162981E7 ; 1.2067441513490722E9 ; 1.6995557286628766E9 ; 3.851616466695701E10 ; 0.0
41 ; 4.45541168309431E7 ; 1.2067859105306778E9 ; 1.7440663518791747E9 ; 3.972290881830608E10 ; 0.0
42 ; 4.458331439980662E7 ; 1.206828641200005E9 ; 1.7886204687101178E9 ; 4.092969472883676E10 ; 0.0
43 ; 4.4616312177760884E7 ; 1.20687231559246E9 ; 1.8332037831099243E9 ; 4.2136523370036766E10 ; 0.0
44 ; 4.464353126092676E7 ; 1.2069169062604058E9 ; 1.8778200952876852E9 ; 4.334339568562923E10 ; 0.0
45 ; 4.4673679426185414E7 ; 1.206962386109457E9 ; 1.9224636265486119E9 ; 4.455031259188963E10 ; 0.0
46 ; 4.4694889224941984E7 ; 1.2070087284305806E9 ; 1.9671373059747972E9 ; 4.575727497799909E10 ; 0.0
47 ; 4.472332898847549E7 ; 1.207055906928196E9 ; 2.0118321951997392E9 ; 4.696428370642967E10 ; 0.0
48 ; 4.474581264622699E7 ; 1.2071038957444942E9 ; 2.0565555241882148E9 ; 4.8171339613357864E10 ; 0.0
49 ; 4.476827766890024E7 ; 1.207152669480194E9 ; 2.1013013368344417E9 ; 4.9378443509102356E10 ; 0.0
50 ; 4.478682847614227E7 ; 1.2072022032119584E9 ; 2.146069614503342E9 ; 5.058559617858255E10 ; 0.0
51 ; 4.479781513898444E7 ; 1.2072524725067043E9 ; 2.190856442979484E9 ; 5.179279838179451E10 ; 0.0
52 ; 4.481458540011816E7 ; 1.2073034534330306E9 ; 2.2356542581184683E9 ; 5.3000050854301216E10 ; 0.0
53 ; 4.483093147982964E7 ; 1.2073551225699863E9 ; 2.2804688435185866E9 ; 5.4207354307734245E10 ; 0.0
54 ; 4.48448684842052E7 ; 1.2074074570134006E9 ; 2.3252997749984164E9 ; 5.541470943030423E10 ; 0.0
55 ; 4.4858862631905735E7 ; 1.207460434379983E9 ; 2.3701446434826217E9 ; 5.662211688731763E10 ; 0.0
56 ; 4.4871562408717915E7 ; 1.2075140328094006E9 ; 2.415003506114527E9 ; 5.782957732169761E10 ; 0.0
57 ; 4.4888954497357264E7 ; 1.2075682309645247E9 ; 2.4598750685232453E9 ; 5.903709135450701E10 ; 0.0
58 ; 4.490555629175613E7 ; 1.2076230080300293E9 ; 2.5047640230206027E9 ; 6.0244659585471535E10 ; 0.0
59 ; 4.491667898885695E7 ; 1.2076783437095218E9 ; 2.549669579312359E9 ; 6.1452282593501564E10 ; 0.0
60 ; 4.493106111784836E7 ; 1.2077342182213635E9 ; 2.5945862583012156E9 ; 6.265996093721108E10 ; 0.0
61 ; 4.4946554985144086E7 ; 1.2077906122933376E9 ; 2.639517319419064E9 ; 6.386769515543245E10 ; 0.0
62 ; 4.49549979054411E7 ; 1.2078475071563044E9 ; 2.684463874404208E9 ; 6.5075485767725784E10 ; 0.0
63 ; 4.4970738560598165E7 ; 1.2079048845369768E9 ; 2.7294188723096495E9 ; 6.628333327488209E10 ; 0.0
64 ; 4.49837960669336E7 ; 1.2079627266499412E9 ; 2.774389610870248E9 ; 6.749123815941907E10 ; 0.0
65 ; 4.49882190130443E7 ; 1.2080210161890306E9 ; 2.8193734069371815E9 ; 6.869920088606901E10 ; 0.0
66 ; 4.5000035684451565E7 ; 1.2080797363181548E9 ; 2.864361625950226E9 ; 6.990722190225804E10 ; 0.0
67 ; 4.501555932610795E7 ; 1.208138870661686E9 ; 2.9093616616346774E9 ; 7.11153016385762E10 ; 0.0
68 ; 4.502642953167863E7 ; 1.2081984032944775E9 ; 2.9543772209607854E9 ; 7.232344050923788E10 ; 0.0
69 ; 4.5030849512720555E7 ; 1.2082583187315996E9 ; 2.999403650492464E9 ; 7.353163891253236E10 ; 0.0
70 ; 4.504563873072168E7 ; 1.2083186019178557E9 ; 3.0444345000051847E9 ; 7.473989723126396E10 ; 0.0
71 ; 4.505355148750282E7 ; 1.2083792382171483E9 ; 3.089480138735906E9 ; 7.594821583318182E10 ; 0.0
72 ; 4.506176032315732E7 ; 1.2084402134017453E9 ; 3.134533690223409E9 ; 7.715659507139897E10 ; 0.0
73 ; 4.506678593405825E7 ; 1.2085015136414993E9 ; 3.1795954505465665E9 ; 7.836503528480072E10 ; 0.0
74 ; 4.507350795410646E7 ; 1.2085631254930615E9 ; 3.2246622364806247E9 ; 7.957353679844221E10 ; 0.0
75 ; 4.509067830389881E7 ; 1.2086250358891354E9 ; 3.269735744434731E9 ; 8.078209992393527E10 ; 0.0
76 ; 4.5093046741231024E7 ; 1.2086872321277952E9 ; 3.31482642273863E9 ; 8.19907249598244E10 ; 0.0
77 ; 4.50920854145699E7 ; 1.2087497018619077E9 ; 3.359919469479861E9 ; 8.31994121919522E10 ; 0.0
78 ; 4.508724006531069E7 ; 1.2088124330886774E9 ; 3.4050115548944306E9 ; 8.44081618938141E10 ; 0.0
79 ; 4.509262603783946E7 ; 1.2088754141393404E9 ; 3.450098794959741E9 ; 8.561697432690279E10 ; 0.0
80 ; 4.508007896978374E7 ; 1.208938633669027E9 ; 3.4951914209975805E9 ; 8.682584974104213E10 ; 0.0
81 ; 4.507266460292052E7 ; 1.2090020806468031E9 ; 3.5402714999673643E9 ; 8.803478837471115E10 ; 0.0
82 ; 4.506503383445405E7 ; 1.2090657443459117E9 ; 3.585344164570285E9 ; 8.924379045535796E10 ; 0.0
83 ; 4.505729806123442E7 ; 1.2091296143342192E9 ; 3.630409198404739E9 ; 9.045285619970387E10 ; 0.0
84 ; 4.504852856674795E7 ; 1.2091936804648795E9 ; 3.6754664964659734E9 ; 9.166198581403809E10 ; 0.0
85 ; 4.503765496905887E7 ; 1.2092579328672187E9 ; 3.7205150250327215E9 ; 9.287117949450296E10 ; 0.0
86 ; 4.502753909989343E7 ; 1.2093223619378512E9 ; 3.7655526800017805E9 ; 9.408043742737018E10 ; 0.0
87 ; 4.501721487971378E7 ; 1.2093869583320224E9 ; 3.810580219101674E9 ; 9.528975978930803E10 ; 0.0
88 ; 4.5007789130900115E7 ; 1.20945171295519E9 ; 3.855597433981388E9 ; 9.649914674764005E10 ; 0.0
89 ; 4.500240869110183E7 ; 1.2095166169548364E9 ; 3.900605223112288E9 ; 9.770859846059523E10 ; 0.0
90 ; 4.498700422149192E7 ; 1.2095816617125192E9 ; 3.94560763180339E9 ; 9.891811507755006E10 ; 0.0
91 ; 4.497908213310076E7 ; 1.2096468388361516E9 ; 3.990594636024882E9 ; 1.0012769673926259E11 ; 0.0
92 ; 4.496419371717635E7 ; 1.20971214015252E9 ; 4.035573718157983E9 ; 1.0133734357809874E11 ; 0.0
93 ; 4.495511502418526E7 ; 1.2097775577000258E9 ; 4.0805379118751593E9 ; 1.0254705571825127E11 ; 0.0
94 ; 4.49423999451661E7 ; 1.209843083721659E9 ; 4.1254930268993444E9 ; 1.037568332759513E11 ; 0.0
95 ; 4.492699847370027E7 ; 1.2099087106581922E9 ; 4.1704354268445106E9 ; 1.0496667635967296E11 ; 0.0
96 ; 4.491181712801599E7 ; 1.2099744311415946E9 ; 4.2153624253182106E9 ; 1.0617658507033115E11 ; 0.0
97 ; 4.490341444222658E7 ; 1.210040237988663E9 ; 4.2602742424462266E9 ; 1.0738655950147275E11 ; 0.0
98 ; 4.4887587977910385E7 ; 1.2101061241948602E9 ; 4.3051776568884535E9 ; 1.0859659973946141E11 ; 0.0
99 ; 4.487498763903478E7 ; 1.2101720829283628E9 ; 4.350065244866364E9 ; 1.0980670586365627E11 ; 0.0
100 ; 4.486502982059087E7 ; 1.2102381075243082E9 ; 4.394940232505399E9 ; 1.1101687794658463E11 ; 0.0
101 ; 4.484526978860129E7 ; 1.2103041914792364E9 ; 4.43980526232599E9 ; 1.1222711605410893E11 ; 0.0
102 ; 4.483047997443875E7 ; 1.2103703284457269E9 ; 4.484650532114591E9 ; 1.1343742024558817E11 ; 0.0
103 ; 4.481619900998195E7 ; 1.2104365122272162E9 ; 4.529481012089029E9 ; 1.1464779057403389E11 ; 0.0
104 ; 4.479396284952472E7 ; 1.2105027367729976E9 ; 4.574297211099011E9 ; 1.1585822708626111E11 ; 0.0
105 ; 4.477983117144297E7 ; 1.2105689961733983E9 ; 4.619091173948536E9 ; 1.170687298230341E11 ; 0.0
106 ; 4.4764590517175764E7 ; 1.2106352846551216E9 ; 4.663871005119979E9 ; 1.182792988192075E11 ; 0.0
107 ; 4.474873834037372E7 ; 1.2107015965767577E9 ; 4.708635595637155E9 ; 1.1948993410386263E11 ; 0.0
108 ; 4.473369029478335E7 ; 1.2107679264244514E9 ; 4.753384333977529E9 ; 1.2070063570043938E11 ; 0.0
109 ; 4.471746412737076E7 ; 1.210834268807726E9 ; 4.798118024272312E9 ; 1.2191140362686383E11 ; 0.0
110 ; 4.469478291565584E7 ; 1.2109006184554543E9 ; 4.842835488399683E9 ; 1.2312223789567155E11 ; 0.0
111 ; 4.467134915942401E7 ; 1.2109669702119756E9 ; 4.887530271315339E9 ; 1.2433313851412701E11 ; 0.0
112 ; 4.465885513239926E7 ; 1.2110333190333507E9 ; 4.932201620474763E9 ; 1.2554410548433899E11 ; 0.0
113 ; 4.463391292568837E7 ; 1.2110996599837532E9 ; 4.976860475607162E9 ; 1.2675513880337234E11 ; 0.0
114 ; 4.4622113944044136E7 ; 1.2111659882319894E9 ; 5.021494388532851E9 ; 1.279662384633561E11 ; 0.0
115 ; 4.45976887235983E7 ; 1.2112322990481443E9 ; 5.066116502476895E9 ; 1.2917740445158809E11 ; 0.0
116 ; 4.457604409947091E7 ; 1.2112985878003483E9 ; 5.110714191200494E9 ; 1.3038863675063623E11 ; 0.0
117 ; 4.455424178586015E7 ; 1.211364849951662E9 ; 5.155290235299965E9 ; 1.3159993533843658E11 ; 0.0
118 ; 4.452947000125985E7 ; 1.2114310810570724E9 ; 5.199844477085825E9 ; 1.3281130018838824E11 ; 0.0
119 ; 4.450826533432561E7 ; 1.2114972767605968E9 ; 5.244373947087085E9 ; 1.3402273126944531E11 ; 0.0
120 ; 4.449315173328088E7 ; 1.2115634327924943E9 ; 5.288882212421411E9 ; 1.352342285462059E11 ; 0.0
121 ; 4.44703672577548E7 ; 1.2116295449665754E9 ; 5.333375364154692E9 ; 1.364457919789984E11 ; 0.0
122 ; 4.4440765597724915E7 ; 1.2116956091776109E9 ; 5.377845731412447E9 ; 1.3765742152396497E11 ; 0.0
123 ; 4.4416711343109146E7 ; 1.211761621398832E9 ; 5.422286497010172E9 ; 1.3886911713314258E11 ; 0.0
124 ; 4.4396347482430235E7 ; 1.2118275776795235E9 ; 5.466703208353281E9 ; 1.400808787545414E11 ; 0.0
125 ; 4.437307604641778E7 ; 1.2118934741427007E9 ; 5.5110995558357115E9 ; 1.4129270633222095E11 ; 0.0
126 ; 4.435150356282933E7 ; 1.211959306982873E9 ; 5.55547263188213E9 ; 1.4250459980636365E11 ; 0.0
127 ; 4.4326177223340355E7 ; 1.2120250724638858E9 ; 5.599824135444959E9 ; 1.4371655911334653E11 ; 0.0
128 ; 4.430193754231483E7 ; 1.2120907669168415E9 ; 5.644150312668299E9 ; 1.4492858418581042E11 ; 0.0
129 ; 4.426939215471512E7 ; 1.2121563867380931E9 ; 5.688452250210613E9 ; 1.4614067495272726E11 ; 0.0
130 ; 4.424232648711337E7 ; 1.2122219283873124E9 ; 5.732721642365329E9 ; 1.4735283133946536E11 ; 0.0
131 ; 4.420439843767056E7 ; 1.212287388385625E9 ; 5.776963968852442E9 ; 1.4856505326785266E11 ; 0.0
132 ; 4.41650457684279E7 ; 1.2123527633138123E9 ; 5.8211683672901125E9 ; 1.4977734065623828E11 ; 0.0
133 ; 4.413085438322802E7 ; 1.2124180498105795E9 ; 5.86533341305854E9 ; 1.509896934195521E11 ; 0.0
134 ; 4.4086527091755055E7 ; 1.2124832445708826E9 ; 5.909464267441769E9 ; 1.5220211146936267E11 ; 0.0
135 ; 4.404067858344993E7 ; 1.2125483443443167E9 ; 5.953550794533524E9 ; 1.5341459471393356E11 ; 0.0
136 ; 4.400296047300261E7 ; 1.2126133459335597E9 ; 5.997591473116974E9 ; 1.546271430582779E11 ; 0.0
137 ; 4.395918650954281E7 ; 1.212678246192874E9 ; 6.041594433589976E9 ; 1.5583975640421146E11 ; 0.0
138 ; 4.391863846799285E7 ; 1.2127430420266569E9 ; 6.085553620099519E9 ; 1.5705243465040433E11 ; 0.0
139 ; 4.387657862560073E7 ; 1.2128077303880453E9 ; 6.129472258567512E9 ; 1.5826517769243097E11 ; 0.0
140 ; 4.383270044375545E7 ; 1.212872308277569E9 ; 6.173348837193112E9 ; 1.59477985422819E11 ; 0.0
141 ; 4.378963033178331E7 ; 1.2129367727418494E9 ; 6.217181537636868E9 ; 1.6069085773109656E11 ; 0.0
142 ; 4.374836043751702E7 ; 1.2130011208723452E9 ; 6.260971167968651E9 ; 1.619037945038384E11 ; 0.0
143 ; 4.369662691301744E7 ; 1.2130653498041427E9 ; 6.304719528406168E9 ; 1.6311679562471075E11 ; 0.0
144 ; 4.366375211116119E7 ; 1.2131294567147846E9 ; 6.348416155319185E9 ; 1.643298609745149E11 ; 0.0
145 ; 4.36388514474833E7 ; 1.213193438823144E9 ; 6.3920799074303465E9 ; 1.6554299043122968E11 ; 0.0
146 ; 4.361143963506277E7 ; 1.2132572933883343E9 ; 6.43571875887783E9 ; 1.6675618387005283E11 ; 0.0
147 ; 4.3581616259855196E7 ; 1.213321017708657E9 ; 6.479330198512893E9 ; 1.6796944116344116E11 ; 0.0
148 ; 4.3545300168644935E7 ; 1.2133846091205883E9 ; 6.522911814772748E9 ; 1.691827621811498E11 ; 0.0
149 ; 4.352482518209918E7 ; 1.2134480649977958E9 ; 6.566457114941393E9 ; 1.703961467902704E11 ; 0.0
150 ; 4.349956267766455E7 ; 1.2135113827501945E9 ; 6.609981940123492E9 ; 1.716095948552682E11 ; 0.0
151 ; 4.347070039787469E7 ; 1.21357455982303E9 ; 6.653481502801157E9 ; 1.7282310623801837E11 ; 0.0
152 ; 4.3439032309759155E7 ; 1.213637593695996E9 ; 6.696952203199032E9 ; 1.740366807978414E11 ; 0.0
153 ; 4.34117735089595E7 ; 1.213700481882381E9 ; 6.740391235508791E9 ; 1.7525031839153738E11 ; 0.0
154 ; 4.337966462188952E7 ; 1.2137632219282432E9 ; 6.783803009017751E9 ; 1.7646401887341977E11 ; 0.0
155 ; 4.335446268935154E7 ; 1.2138258114116147E9 ; 6.82718267363964E9 ; 1.7767778209534802E11 ; 0.0
156 ; 4.332366938289217E7 ; 1.2138882479417307E9 ; 6.870537136328991E9 ; 1.7889160790675964E11 ; 0.0
157 ; 4.325962747279691E7 ; 1.213950529158287E9 ; 6.913860805711884E9 ; 1.801054961547014E11 ; 0.0
158 ; 4.317661765999636E7 ; 1.2140126527307196E9 ; 6.95712043318468E9 ; 1.8131944668385968E11 ; 0.0
159 ; 4.308128003734038E7 ; 1.2140746163575094E9 ; 7.000297050844676E9 ; 1.825334593365904E11 ; 0.0
160 ; 4.299606641332434E7 ; 1.2141364177655132E9 ; 7.043378330882016E9 ; 1.837475339529479E11 ; 0.0
161 ; 4.290458578195E7 ; 1.2141980547093105E9 ; 7.086374397295341E9 ; 1.849616703707134E11 ; 0.0
162 ; 4.282616238175077E7 ; 1.2142595249705782E9 ; 7.129278983077291E9 ; 1.8617586842542273E11 ; 0.0
163 ; 4.272924455675319E7 ; 1.2143208263574824E9 ; 7.172105145459042E9 ; 1.873901279503933E11 ; 0.0
164 ; 4.263731227276921E7 ; 1.2143819567040913E9 ; 7.214834390015795E9 ; 1.886044487767508E11 ; 0.0
165 ; 4.255974267752252E7 ; 1.214442913869807E9 ; 7.257471702288564E9 ; 1.898188307334549E11 ; 0.0
166 ; 4.246245633428396E7 ; 1.2145036957388172E9 ; 7.300031444966086E9 ; 1.910332736473247E11 ; 0.0
167 ; 4.236804385642865E7 ; 1.214564300219563E9 ; 7.34249390130037E9 ; 1.9224777734306354E11 ; 0.0
168 ; 4.229172287634916E7 ; 1.2146247252442253E9 ; 7.384861945156799E9 ; 1.934623416432831E11 ; 0.0
169 ; 4.219232507768278E7 ; 1.2146849687682266E9 ; 7.427153668033149E9 ; 1.9467696636852734E11 ; 0.0
170 ; 4.211157860460523E7 ; 1.214745028769753E9 ; 7.469345993110831E9 ; 1.9589165133729556E11 ; 0.0
171 ; 4.201894508776883E7 ; 1.2148049032492833E9 ; 7.511457571715437E9 ; 1.971063963660653E11 ; 0.0
172 ; 4.1935255581836574E7 ; 1.2148645902291436E9 ; 7.5534765168032055E9 ; 1.983212012693146E11 ; 0.0
173 ; 4.184871736311315E7 ; 1.2149240877530684E9 ; 7.595411772385042E9 ; 1.9953606585954376E11 ; 0.0
174 ; 4.176986850527155E7 ; 1.2149833938857799E9 ; 7.637260489748156E9 ; 2.0075098994729684E11 ; 0.0
175 ; 4.1690448096223965E7 ; 1.2150425067125778E9 ; 7.6790303582534275E9 ; 2.0196597334118262E11 ; 0.0
176 ; 4.1608412348591544E7 ; 1.2151014243389454E9 ; 7.720720806349651E9 ; 2.031810158478952E11 ; 0.0
177 ; 4.153530990803305E7 ; 1.215160144890166E9 ; 7.762329218698243E9 ; 2.0439611727223416E11 ; 0.0
178 ; 4.145884446897103E7 ; 1.2152186665109525E9 ; 7.8038645286062765E9 ; 2.0561127741712433E11 ; 0.0
179 ; 4.138335325081403E7 ; 1.2152769873650877E9 ; 7.845323373075248E9 ; 2.0682649608363528E11 ; 0.0
180 ; 4.130301757590536E7 ; 1.2153351056350777E9 ; 7.886706726326062E9 ; 2.0804177307100037E11 ; 0.0
181 ; 4.122454236737901E7 ; 1.2153930195218143E9 ; 7.928009743901968E9 ; 2.0925710817663544E11 ; 0.0
182 ; 4.115269600411356E7 ; 1.2154507272442493E9 ; 7.969234286269347E9 ; 2.1047250119615726E11 ; 0.0
183 ; 4.107818987522046E7 ; 1.2155082270390787E9 ; 8.01038698227346E9 ; 2.1168795192340152E11 ; 0.0
184 ; 4.099661723323952E7 ; 1.2155655171604369E9 ; 8.051465172148681E9 ; 2.129034601504406E11 ; 0.0
185 ; 4.0915890070691235E7 ; 1.215622595879599E9 ; 8.09246178938192E9 ; 2.1411902566760104E11 ; 0.0
186 ; 4.0841780586969085E7 ; 1.2156794614846964E9 ; 8.133377679452611E9 ; 2.1533464826348065E11 ; 0.0
187 ; 4.0768171964391924E7 ; 1.2157361122804353E9 ; 8.17421946003958E9 ; 2.1655032772496536E11 ; 0.0
188 ; 4.068015949057379E7 ; 1.2157925465878294E9 ; 8.214987632003972E9 ; 2.177660638372458E11 ; 0.0
189 ; 4.060697883700509E7 ; 1.215848762743938E9 ; 8.255667791494546E9 ; 2.1898185638383362E11 ; 0.0
190 ; 4.052692872305219E7 ; 1.2159047591016123E9 ; 8.296274770331551E9 ; 2.2019770514657755E11 ; 0.0
191 ; 4.045530182260652E7 ; 1.2159605340292509E9 ; 8.336801699054603E9 ; 2.2141360990567917E11 ; 0.0
192 ; 4.0380647756347954E7 ; 1.216016085910561E9 ; 8.377257000877209E9 ; 2.226295704397084E11 ; 0.0
193 ; 4.029753779050857E7 ; 1.2160714131443293E9 ; 8.417637648633556E9 ; 2.2384558652561896E11 ; 0.0
194 ; 4.021978754162655E7 ; 1.2161265141441965E9 ; 8.457935186424065E9 ; 2.2506165793876328E11 ; 0.0
195 ; 4.014177373075104E7 ; 1.2161813873384428E9 ; 8.498154973965692E9 ; 2.2627778445290747E11 ; 0.0
196 ; 4.0066050351015985E7 ; 1.2162360311697764E9 ; 8.538296747696443E9 ; 2.274939658402459E11 ; 0.0
