CSV File for the Network on Day 334
1 - Minute m 
2 - Power Consumed at minute m 
3 - Power Produced at minute m 
4 - Energy Consumed since the beginning of the day 
5 - Energy Produced since the beginning of the day 
6 - Energy Lost since the beginning of the day 
 
0 ; 3.8752382776115894E7 ; 6.36876936116803E8 ; 0.0 ; 0.0 ; 0.0
1 ; 3.8795281421058096E7 ; 6.37787483362493E8 ; 3.8752382776115894E7 ; 6.36876936116803E8 ; 0.0
2 ; 3.8837551002661005E7 ; 6.405514640163699E8 ; 7.754766419717398E7 ; 1.2746644194792962E9 ; 0.0
3 ; 3.889344421402304E7 ; 6.451688902894049E8 ; 1.1638521519983499E8 ; 1.915215883495666E9 ; 0.0
4 ; 3.893998817424098E7 ; 6.516397730758332E8 ; 1.5527865941385803E8 ; 2.560384773785071E9 ; 0.0
5 ; 3.9015185701377764E7 ; 6.599641219095652E8 ; 1.94218647588099E8 ; 3.212024546860904E9 ; 0.0
6 ; 3.910855632673519E7 ; 6.701419449255219E8 ; 2.3323383328947675E8 ; 3.8719886687704697E9 ; 0.0
7 ; 3.9241264263970986E7 ; 6.821732488262578E8 ; 2.7234238961621195E8 ; 4.5421306136959915E9 ; 0.0
8 ; 3.943119321699355E7 ; 6.960580388541985E8 ; 3.115836538801829E8 ; 5.224303862522249E9 ; 0.0
9 ; 3.970618826339896E7 ; 7.117963187697535E8 ; 3.510148470971765E8 ; 5.920361901376448E9 ; 0.0
10 ; 4.014542600317599E7 ; 7.293880908355293E8 ; 3.9072103536057544E8 ; 6.632158220146201E9 ; 0.0
11 ; 4.082823901559791E7 ; 7.488333558067908E8 ; 4.308664613637514E8 ; 7.36154631098173E9 ; 0.0
12 ; 4.1949477756146364E7 ; 7.701321129282726E8 ; 4.7169470037934935E8 ; 8.110379666788521E9 ; 0.0
13 ; 4.3008610273612015E7 ; 7.932843599373689E8 ; 5.136441781354957E8 ; 8.880511779716793E9 ; 0.0
14 ; 4.3132679813958034E7 ; 8.182900930736699E8 ; 5.566527884091077E8 ; 9.673796139654161E9 ; 0.0
15 ; 4.318159717707806E7 ; 8.451493070947502E8 ; 5.997854682230657E8 ; 1.049208623272783E10 ; 0.0
16 ; 4.323324053659907E7 ; 8.738619952980554E8 ; 6.429670654001437E8 ; 1.133723553982258E10 ; 0.0
17 ; 4.3288634267377555E7 ; 9.044281495486642E8 ; 6.862003059367428E8 ; 1.2211097535120636E10 ; 0.0
18 ; 4.33391379432109E7 ; 9.368477603126664E8 ; 7.294889402041204E8 ; 1.31155256846693E10 ; 0.0
19 ; 4.338799394375567E7 ; 9.711208166958264E8 ; 7.728280781473312E8 ; 1.4052373444981966E10 ; 0.0
20 ; 4.34408524779063E7 ; 1.0072473064871732E9 ; 8.162160720910869E8 ; 1.5023494261677792E10 ; 0.0
21 ; 4.349025376700088E7 ; 1.0452272162071115E9 ; 8.596569245689932E8 ; 1.6030741568164965E10 ; 0.0
22 ; 4.353883614249236E7 ; 1.0850605311596165E9 ; 9.031471783359941E8 ; 1.7075968784372076E10 ; 0.0
23 ; 4.3594593898530126E7 ; 1.126747235488054E9 ; 9.466860144784865E8 ; 1.8161029315531693E10 ; 0.0
24 ; 4.364839025509222E7 ; 1.1702873122341456E9 ; 9.902806083770167E8 ; 1.9287776551019745E10 ; 0.0
25 ; 4.3699552490856975E7 ; 1.207808988788689E9 ; 1.0339289986321089E9 ; 2.045806386325389E10 ; 0.0
26 ; 4.3755584618810624E7 ; 1.2078335331767101E9 ; 1.0776285511229658E9 ; 2.166587285204258E10 ; 0.0
27 ; 4.3799055476002425E7 ; 1.2078595412723327E9 ; 1.1213841357417765E9 ; 2.287370638521929E10 ; 0.0
28 ; 4.386025481396868E7 ; 1.2078869923460417E9 ; 1.165183191217779E9 ; 2.4081565926491623E10 ; 0.0
29 ; 4.390570028051594E7 ; 1.2079158648914976E9 ; 1.2090434460317476E9 ; 2.5289452918837666E10 ; 0.0
30 ; 4.395032349763344E7 ; 1.2079461366931477E9 ; 1.2529491463122635E9 ; 2.6497368783729164E10 ; 0.0
31 ; 4.400403083098842E7 ; 1.2079777848936653E9 ; 1.296899469809897E9 ; 2.770531492042231E10 ; 0.0
32 ; 4.404301369575068E7 ; 1.2080107860608296E9 ; 1.3409035006408854E9 ; 2.8913292705315975E10 ; 0.0
33 ; 4.4093140159302354E7 ; 1.2080451162534652E9 ; 1.384946514336636E9 ; 3.0121303491376804E10 ; 0.0
34 ; 4.4136796661710694E7 ; 1.2080807510861108E9 ; 1.4290396544959383E9 ; 3.132934860763027E10 ; 0.0
35 ; 4.418398064055847E7 ; 1.2081176657921038E9 ; 1.473176451157649E9 ; 3.2537429358716377E10 ; 0.0
36 ; 4.4215218758109964E7 ; 1.2081558352848206E9 ; 1.5173604317982075E9 ; 3.374554702450848E10 ; 0.0
37 ; 4.426468754147616E7 ; 1.2081952342168274E9 ; 1.5615756505563176E9 ; 3.4953702859793304E10 ; 0.0
38 ; 4.430303563815128E7 ; 1.2082358370367472E9 ; 1.6058403380977938E9 ; 3.616189809401013E10 ; 0.0
39 ; 4.434076531353018E7 ; 1.2082776180436773E9 ; 1.650143373735945E9 ; 3.737013393104688E10 ; 0.0
40 ; 4.437293762006816E7 ; 1.2083205514390168E9 ; 1.6944841390494752E9 ; 3.857841154909056E10 ; 0.0
41 ; 4.4412925654351294E7 ; 1.2083646113756058E9 ; 1.7388570766695433E9 ; 3.978673210052958E10 ; 0.0
42 ; 4.443975026505291E7 ; 1.2084097720041075E9 ; 1.7832700023238945E9 ; 4.099509671190518E10 ; 0.0
43 ; 4.447375353481422E7 ; 1.2084560075165782E9 ; 1.8277097525889473E9 ; 4.220350648390929E10 ; 0.0
44 ; 4.45025667165937E7 ; 1.2085032921872122E9 ; 1.8721835061237614E9 ; 4.3411962491425865E10 ; 0.0
45 ; 4.452535343502179E7 ; 1.2085516004102592E9 ; 1.9166860728403552E9 ; 4.4620465783613075E10 ; 0.0
46 ; 4.455279508714029E7 ; 1.2086009067351441E9 ; 1.961211426275377E9 ; 4.582901738402333E10 ; 0.0
47 ; 4.457104625114018E7 ; 1.2086511858988216E9 ; 2.0057642213625174E9 ; 4.703761829075848E10 ; 0.0
48 ; 4.458957510579425E7 ; 1.208702412855433E9 ; 2.0503352676136575E9 ; 4.8246269476657295E10 ; 0.0
49 ; 4.4614968591910586E7 ; 1.2087545628033285E9 ; 2.0949248427194517E9 ; 4.9454971889512726E10 ; 0.0
50 ; 4.463441215473768E7 ; 1.2088076112095432E9 ; 2.1395398113113623E9 ; 5.0663726452316055E10 ; 0.0
51 ; 4.4646529248393424E7 ; 1.2088615338318174E9 ; 2.1841742234660997E9 ; 5.18725340635256E10 ; 0.0
52 ; 4.46608642512992E7 ; 1.2089163067382617E9 ; 2.2288207527144933E9 ; 5.3081395597357414E10 ; 0.0
53 ; 4.467341582703574E7 ; 1.2089719063247743E9 ; 2.2734816169657927E9 ; 5.429031190409567E10 ; 0.0
54 ; 4.4689973651829585E7 ; 1.2090283093303173E9 ; 2.3181550327928286E9 ; 5.549928381042045E10 ; 0.0
55 ; 4.47049264279512E7 ; 1.209085492850174E9 ; 2.3628450064446583E9 ; 5.670831211975076E10 ; 0.0
56 ; 4.472295284363681E7 ; 1.2091434343472893E9 ; 2.4075499328726096E9 ; 5.791739761260094E10 ; 0.0
57 ; 4.4731992708647296E7 ; 1.2092021116618235E9 ; 2.4522728857162466E9 ; 5.912654104694823E10 ; 0.0
58 ; 4.4742733679468796E7 ; 1.209261503019021E9 ; 2.497004878424894E9 ; 6.0335743158610054E10 ; 0.0
59 ; 4.47575907841423E7 ; 1.209321587035516E9 ; 2.5417476121043625E9 ; 6.1545004661629074E10 ; 0.0
60 ; 4.477239649154926E7 ; 1.2093823427241828E9 ; 2.586505202888505E9 ; 6.275432624866459E10 ; 0.0
61 ; 4.47779226521184E7 ; 1.2094437494976397E9 ; 2.6312775993800545E9 ; 6.396370859138877E10 ; 0.0
62 ; 4.479595319187291E7 ; 1.2095057871705098E9 ; 2.6760555220321727E9 ; 6.517315234088641E10 ; 0.0
63 ; 4.4801410792243384E7 ; 1.2095684359605432E9 ; 2.7208514752240458E9 ; 6.638265812805692E10 ; 0.0
64 ; 4.481901975897831E7 ; 1.209631676488693E9 ; 2.765652886016289E9 ; 6.759222656401746E10 ; 0.0
65 ; 4.4818768310365796E7 ; 1.2096954897782438E9 ; 2.8104719057752676E9 ; 6.880185824050615E10 ; 0.0
66 ; 4.483578783448037E7 ; 1.2097598572530713E9 ; 2.8552906740856333E9 ; 7.00115537302844E10 ; 0.0
67 ; 4.483777367822355E7 ; 1.209824760735128E9 ; 2.9001264619201136E9 ; 7.122131358753746E10 ; 0.0
68 ; 4.485463332842179E7 ; 1.209890182441225E9 ; 2.944964235598337E9 ; 7.243113834827258E10 ; 0.0
69 ; 4.486179048248914E7 ; 1.209956104979186E9 ; 2.989818868926759E9 ; 7.36410285307138E10 ; 0.0
70 ; 4.4869122049850106E7 ; 1.2100225113434477E9 ; 3.034680659409248E9 ; 7.4850984635693E10 ; 0.0
71 ; 4.488090937245073E7 ; 1.210089384910163E9 ; 3.079549781459098E9 ; 7.606100714703644E10 ; 0.0
72 ; 4.488185683517446E7 ; 1.2101567094318767E9 ; 3.1244306908315487E9 ; 7.72710965319466E10 ; 0.0
73 ; 4.489935576258571E7 ; 1.2102244690318236E9 ; 3.1693125476667233E9 ; 7.848125324137846E10 ; 0.0
74 ; 4.490051062378791E7 ; 1.2102926481979039E9 ; 3.214211903429309E9 ; 7.96914777104103E10 ; 0.0
75 ; 4.490651209410112E7 ; 1.2103612317763822E9 ; 3.259112414053097E9 ; 8.09017703586082E10 ; 0.0
76 ; 4.491170587270473E7 ; 1.2104302049653583E9 ; 3.3040189261471977E9 ; 8.211213159038458E10 ; 0.0
77 ; 4.4918009341676846E7 ; 1.2104995533080444E9 ; 3.348930632019902E9 ; 8.332256179534995E10 ; 0.0
78 ; 4.491051442452966E7 ; 1.2105692626858945E9 ; 3.393848641361579E9 ; 8.453306134865799E10 ; 0.0
79 ; 4.490257193962251E7 ; 1.2106393193116097E9 ; 3.4387591557861085E9 ; 8.574363061134389E10 ; 0.0
80 ; 4.488892295452476E7 ; 1.2107097097220604E9 ; 3.483661727725731E9 ; 8.69542699306555E10 ; 0.0
81 ; 4.4877169606646165E7 ; 1.2107804207711477E9 ; 3.528550650680256E9 ; 8.816497964037756E10 ; 0.0
82 ; 4.48792931732772E7 ; 1.2108514396226301E9 ; 3.573427820286902E9 ; 8.937576006114871E10 ; 0.0
83 ; 4.48722930190719E7 ; 1.210922753742941E9 ; 3.6183071134601793E9 ; 9.058661150077135E10 ; 0.0
84 ; 4.485890558595615E7 ; 1.2109943508940158E9 ; 3.6631794064792514E9 ; 9.179753425451428E10 ; 0.0
85 ; 4.484058586455725E7 ; 1.2110662191261468E9 ; 3.7080383120652075E9 ; 9.30085286054083E10 ; 0.0
86 ; 4.483583823210445E7 ; 1.2111383467708836E9 ; 3.7528788979297647E9 ; 9.421959482453444E10 ; 0.0
87 ; 4.4823097403985076E7 ; 1.211210722433992E9 ; 3.797714736161869E9 ; 9.543073317130533E10 ; 0.0
88 ; 4.481098503013422E7 ; 1.2112833349884882E9 ; 3.842537833565854E9 ; 9.664194389373932E10 ; 0.0
89 ; 4.479911678343327E7 ; 1.2113561735677528E9 ; 3.8873488185959883E9 ; 9.785322722872781E10 ; 0.0
90 ; 4.4788095599395305E7 ; 1.2114292275587416E9 ; 3.9321479353794217E9 ; 9.906458340229556E10 ; 0.0
91 ; 4.477757444015498E7 ; 1.2115024865952976E9 ; 3.976936030978817E9 ; 1.0027601262985431E11 ; 0.0
92 ; 4.47645608368943E7 ; 1.211575940551572E9 ; 4.021713605418972E9 ; 1.014875151164496E11 ; 0.0
93 ; 4.475259095800933E7 ; 1.2116495795355625E9 ; 4.0664781662558665E9 ; 1.0269909105700117E11 ; 0.0
94 ; 4.473641158362428E7 ; 1.21172339388277E9 ; 4.111230757213876E9 ; 1.0391074063653674E11 ; 0.0
95 ; 4.471709382975609E7 ; 1.2117973741499834E9 ; 4.1559671687975E9 ; 1.0512246403041951E11 ; 0.0
96 ; 4.469858076283163E7 ; 1.2118715111091907E9 ; 4.2006842626272564E9 ; 1.0633426140456949E11 ; 0.0
97 ; 4.469309038835281E7 ; 1.2119457957416236E9 ; 4.245382843390088E9 ; 1.0754613291567868E11 ; 0.0
98 ; 4.467863395405932E7 ; 1.212020219231933E9 ; 4.290075933778441E9 ; 1.087580787114203E11 ; 0.0
99 ; 4.465629929817638E7 ; 1.2120947729625015E9 ; 4.3347545677325E9 ; 1.0997009893065224E11 ; 0.0
100 ; 4.464447132452913E7 ; 1.2121694485078897E9 ; 4.379410867030677E9 ; 1.1118219370361475E11 ; 0.0
101 ; 4.462908660650496E7 ; 1.2122442376294205E9 ; 4.424055338355206E9 ; 1.1239436315212263E11 ; 0.0
102 ; 4.461939176668413E7 ; 1.212319132269896E9 ; 4.468684424961711E9 ; 1.1360660738975206E11 ; 0.0
103 ; 4.459531063751095E7 ; 1.2123941245484533E9 ; 4.513303816728395E9 ; 1.1481892652202196E11 ; 0.0
104 ; 4.458304990131344E7 ; 1.212469206755552E9 ; 4.557899127365907E9 ; 1.160313206465704E11 ; 0.0
105 ; 4.45568196894412E7 ; 1.2125443713480968E9 ; 4.6024821772672205E9 ; 1.1724378985332596E11 ; 0.0
106 ; 4.454000995005883E7 ; 1.2126196109446912E9 ; 4.647038996956661E9 ; 1.1845633422467406E11 ; 0.0
107 ; 4.452415131099993E7 ; 1.2126949183210216E9 ; 4.69157900690672E9 ; 1.1966895383561874E11 ; 0.0
108 ; 4.4501852338786826E7 ; 1.2127702864053702E9 ; 4.73610315821772E9 ; 1.2088164875393976E11 ; 0.0
109 ; 4.4484246182652056E7 ; 1.2128457082742546E9 ; 4.780605010556507E9 ; 1.2209441904034512E11 ; 0.0
110 ; 4.4464074977787904E7 ; 1.212921177148191E9 ; 4.82508925673916E9 ; 1.2330726474861938E11 ; 0.0
111 ; 4.444352862192868E7 ; 1.2129966863875792E9 ; 4.869553331716948E9 ; 1.2452018592576758E11 ; 0.0
112 ; 4.442332751338832E7 ; 1.2130722294887097E9 ; 4.913996860338876E9 ; 1.2573318261215515E11 ; 0.0
113 ; 4.440396030167396E7 ; 1.2131478000798845E9 ; 4.958420187852264E9 ; 1.2694625484164386E11 ; 0.0
114 ; 4.437794624142254E7 ; 1.213223391917656E9 ; 5.002824148153938E9 ; 1.2815940264172374E11 ; 0.0
115 ; 4.435271382221E7 ; 1.2132989988831744E9 ; 5.047202094395361E9 ; 1.2937262603364139E11 ; 0.0
116 ; 4.4336099902755864E7 ; 1.2133746149786496E9 ; 5.091554808217571E9 ; 1.3058592503252457E11 ; 0.0
117 ; 4.430901768901474E7 ; 1.2134502343239145E9 ; 5.135890908120327E9 ; 1.3179929964750322E11 ; 0.0
118 ; 4.429227011443279E7 ; 1.2135258511530967E9 ; 5.180199925809341E9 ; 1.3301274988182713E11 ; 0.0
119 ; 4.426439547734464E7 ; 1.2136014598113894E9 ; 5.224492195923774E9 ; 1.3422627573298022E11 ; 0.0
120 ; 4.4241127849456266E7 ; 1.2136770547519238E9 ; 5.268756591401118E9 ; 1.3543987719279161E11 ; 0.0
121 ; 4.421354647651264E7 ; 1.2137526305327337E9 ; 5.312997719250574E9 ; 1.3665355424754353E11 ; 0.0
122 ; 4.419797210707766E7 ; 1.213828181813819E9 ; 5.357211265727087E9 ; 1.3786730687807626E11 ; 0.0
123 ; 4.4171869909383215E7 ; 1.2139037033542955E9 ; 5.401409237834165E9 ; 1.3908113505989008E11 ; 0.0
124 ; 4.4138834909977555E7 ; 1.2139791900096374E9 ; 5.445581107743547E9 ; 1.402950387632444E11 ; 0.0
125 ; 4.4117304428262286E7 ; 1.2140546367290022E9 ; 5.489719942653525E9 ; 1.4150901795325403E11 ; 0.0
126 ; 4.4092268008807585E7 ; 1.2141300385526428E9 ; 5.533837247081788E9 ; 1.4272307258998303E11 ; 0.0
127 ; 4.40661475981293E7 ; 1.2142053906093974E9 ; 5.577929515090595E9 ; 1.4393720262853568E11 ; 0.0
128 ; 4.4029622445258915E7 ; 1.2142806881142604E9 ; 5.6219956626887245E9 ; 1.4515140801914508E11 ; 0.0
129 ; 4.400408854695809E7 ; 1.2143559263660285E9 ; 5.666025285133984E9 ; 1.4636568870725934E11 ; 0.0
130 ; 4.3975207028209485E7 ; 1.2144311007450228E9 ; 5.710029373680942E9 ; 1.4758004463362537E11 ; 0.0
131 ; 4.393512576658219E7 ; 1.214506206710879E9 ; 5.754004580709151E9 ; 1.487944757343704E11 ; 0.0
132 ; 4.389725530380972E7 ; 1.214581239800412E9 ; 5.797939706475734E9 ; 1.5000898194108127E11 ; 0.0
133 ; 4.38524846745176E7 ; 1.2146561956255436E9 ; 5.841836961779544E9 ; 1.5122356318088168E11 ; 0.0
134 ; 4.381042612986187E7 ; 1.2147310698712993E9 ; 5.8856894464540615E9 ; 1.5243821937650723E11 ; 0.0
135 ; 4.376605713710007E7 ; 1.2148058582938657E9 ; 5.929499872583923E9 ; 1.5365295044637854E11 ; 0.0
136 ; 4.372501390384291E7 ; 1.2148805567187107E9 ; 5.973265929721024E9 ; 1.548677563046724E11 ; 0.0
137 ; 4.367942591417232E7 ; 1.2149551610387638E9 ; 6.0169909436248665E9 ; 1.560826368613911E11 ; 0.0
138 ; 4.36395190040456E7 ; 1.215029667212651E9 ; 6.060670369539039E9 ; 1.5729759202242987E11 ; 0.0
139 ; 4.359267416483013E7 ; 1.2151040712629895E9 ; 6.104309888543084E9 ; 1.5851262168964252E11 ; 0.0
140 ; 4.354610355306506E7 ; 1.2151783692747328E9 ; 6.147902562707914E9 ; 1.5972772576090552E11 ; 0.0
141 ; 4.34933695581085E7 ; 1.215252557393571E9 ; 6.19144866626098E9 ; 1.6094290413018024E11 ; 0.0
142 ; 4.3454289422797434E7 ; 1.2153266318243792E9 ; 6.234942035819088E9 ; 1.6215815668757382E11 ; 0.0
143 ; 4.341108094426642E7 ; 1.2154005888297153E9 ; 6.278396325241885E9 ; 1.633734833193982E11 ; 0.0
144 ; 4.336538943362608E7 ; 1.2154744247283673E9 ; 6.3218074061861515E9 ; 1.645888839082279E11 ; 0.0
145 ; 4.3330880889370136E7 ; 1.2155481358939433E9 ; 6.365172795619778E9 ; 1.6580435833295627E11 ; 0.0
146 ; 4.33086370857031E7 ; 1.2156217187535086E9 ; 6.408503676509148E9 ; 1.6701990646885022E11 ; 0.0
147 ; 4.3273553572956845E7 ; 1.215695169786263E9 ; 6.451812313594851E9 ; 1.6823552818760373E11 ; 0.0
148 ; 4.324197105411875E7 ; 1.2157684855222614E9 ; 6.495085867167808E9 ; 1.6945122335738998E11 ; 0.0
149 ; 4.321757577547456E7 ; 1.2158416625411754E9 ; 6.538327838221927E9 ; 1.7066699184291223E11 ; 0.0
150 ; 4.318664681746494E7 ; 1.2159146974710903E9 ; 6.581545413997401E9 ; 1.718828335054534E11 ; 0.0
151 ; 4.315916677668296E7 ; 1.2159875869873443E9 ; 6.624732060814866E9 ; 1.730987482029245E11 ; 0.0
152 ; 4.312684633512643E7 ; 1.2160603278113983E9 ; 6.667891227591549E9 ; 1.7431473578991183E11 ; 0.0
153 ; 4.309795439284408E7 ; 1.2161329167097476E9 ; 6.711018073926676E9 ; 1.7553079611772324E11 ; 0.0
154 ; 4.3066587816899456E7 ; 1.216205350492862E9 ; 6.75411602831952E9 ; 1.7674692903443298E11 ; 0.0
155 ; 4.3036415184236094E7 ; 1.216277626014161E9 ; 6.797182616136419E9 ; 1.7796313438492584E11 ; 0.0
156 ; 4.3002132127590716E7 ; 1.2163497401690218E9 ; 6.840219031320656E9 ; 1.7917941201094E11 ; 0.0
157 ; 4.296742108585329E7 ; 1.2164216898938162E9 ; 6.883221163448247E9 ; 1.8039576175110904E11 ; 0.0
158 ; 4.2938260536075056E7 ; 1.2164934721649785E9 ; 6.926188584534101E9 ; 1.8161218344100287E11 ; 0.0
159 ; 4.291091394866493E7 ; 1.2165650839981008E9 ; 6.969126845070175E9 ; 1.8282867691316785E11 ; 0.0
160 ; 4.287413750483442E7 ; 1.2166365224470587E9 ; 7.01203775901884E9 ; 1.8404524199716595E11 ; 0.0
161 ; 4.28505851249885E7 ; 1.216707784603162E9 ; 7.054911896523674E9 ; 1.85261878519613E11 ; 0.0
162 ; 4.281504581169512E7 ; 1.2167788675943313E9 ; 7.097762481648663E9 ; 1.8647858630421616E11 ; 0.0
163 ; 4.277462877182815E7 ; 1.2168497685843005E9 ; 7.140577527460358E9 ; 1.876953651718105E11 ; 0.0
164 ; 4.27448673018018E7 ; 1.2169204847718444E9 ; 7.183352156232185E9 ; 1.8891221494039478E11 ; 0.0
165 ; 4.2718160130376145E7 ; 1.2169910133900294E9 ; 7.226097023533987E9 ; 1.9012913542516663E11 ; 0.0
166 ; 4.2692404644845955E7 ; 1.2170613517054853E9 ; 7.268815183664363E9 ; 1.9134612643855664E11 ; 0.0
167 ; 4.2651894854045846E7 ; 1.217131497017703E9 ; 7.311507588309209E9 ; 1.9256318779026212E11 ; 0.0
168 ; 4.262187445662021E7 ; 1.217201446658349E9 ; 7.354159483163255E9 ; 1.9378031928727982E11 ; 0.0
169 ; 4.2583745233636215E7 ; 1.2172711979906054E9 ; 7.396781357619875E9 ; 1.9499752073393817E11 ; 0.0
170 ; 4.255072875438151E7 ; 1.2173407484085255E9 ; 7.439365102853511E9 ; 1.9621479193192877E11 ; 0.0
171 ; 4.251575764818415E7 ; 1.2174100953364124E9 ; 7.481915831607892E9 ; 1.974321326803373E11 ; 0.0
172 ; 4.2491714882923044E7 ; 1.217479236228214E9 ; 7.524431589256076E9 ; 1.9864954277567374E11 ; 0.0
173 ; 4.2456489335897446E7 ; 1.217548168566938E9 ; 7.566923304138999E9 ; 1.9986702201190195E11 ; 0.0
174 ; 4.2438645034171835E7 ; 1.2176168898640814E9 ; 7.609379793474896E9 ; 2.0108457018046887E11 ; 0.0
175 ; 4.241084953970047E7 ; 1.2176853976590817E9 ; 7.6518184385090685E9 ; 2.0230218707033295E11 ; 0.0
176 ; 4.239721962159261E7 ; 1.2177536895187807E9 ; 7.694229288048769E9 ; 2.0351987246799203E11 ; 0.0
177 ; 4.237860301925007E7 ; 1.2178217630369058E9 ; 7.7366265076703615E9 ; 2.047376261575108E11 ; 0.0
178 ; 4.235448406473135E7 ; 1.217889615833566E9 ; 7.779005110689611E9 ; 2.059554479205477E11 ; 0.0
179 ; 4.233379560433889E7 ; 1.2179572455547652E9 ; 7.821359594754343E9 ; 2.0717333753638126E11 ; 0.0
180 ; 4.23094062411694E7 ; 1.2180246498719258E9 ; 7.863693390358682E9 ; 2.0839129478193604E11 ; 0.0
181 ; 4.2286651698193215E7 ; 1.2180918264814312E9 ; 7.906002796599851E9 ; 2.0960931943180795E11 ; 0.0
182 ; 4.227185148902695E7 ; 1.2181587731041775E9 ; 7.948289448298044E9 ; 2.108274112582894E11 ; 0.0
183 ; 4.2251420854974404E7 ; 1.2182254874851415E9 ; 7.990561299787071E9 ; 2.120455700313936E11 ; 0.0
184 ; 4.223481427526811E7 ; 1.2182919673929598E9 ; 8.032812720642046E9 ; 2.1326379551887872E11 ; 0.0
185 ; 4.221288405906436E7 ; 1.2183582106195207E9 ; 8.075047534917315E9 ; 2.144820874862717E11 ; 0.0
186 ; 4.218441884914171E7 ; 1.2184242149795682E9 ; 8.117260418976378E9 ; 2.157004456968912E11 ; 0.0
187 ; 4.216565788048072E7 ; 1.2184899783103182E9 ; 8.1594448378255205E9 ; 2.1691886991187076E11 ; 0.0
188 ; 4.214623007223917E7 ; 1.2185554984710836E9 ; 8.201610495706001E9 ; 2.181373598901811E11 ; 0.0
189 ; 4.212702601404631E7 ; 1.2186207733429134E9 ; 8.24375672577824E9 ; 2.1935591538865216E11 ; 0.0
190 ; 4.210615774727751E7 ; 1.2186858008282402E9 ; 8.285883751792287E9 ; 2.205745361619951E11 ; 0.0
191 ; 4.2082907997520044E7 ; 1.2187505788505385E9 ; 8.327989909539564E9 ; 2.2179322196282333E11 ; 0.0
192 ; 4.206843647214336E7 ; 1.2188151053539937E9 ; 8.370072817537085E9 ; 2.2301197254167386E11 ; 0.0
193 ; 4.2046220227946036E7 ; 1.2188793783031788E9 ; 8.412141254009228E9 ; 2.2423078764702786E11 ; 0.0
194 ; 4.2025884388924904E7 ; 1.2189433956827428E9 ; 8.454187474237174E9 ; 2.2544966702533105E11 ; 0.0
195 ; 4.2002297886549495E7 ; 1.219007155497106E9 ; 8.496213358626099E9 ; 2.266686104210138E11 ; 0.0
196 ; 4.1981657499443546E7 ; 1.2190706557701652E9 ; 8.538215656512649E9 ; 2.278876175765109E11 ; 0.0
