CSV File for the Network on Day 82
1 - Minute m 
2 - Power Consumed at minute m 
3 - Power Produced at minute m 
4 - Energy Consumed since the beginning of the day 
5 - Energy Produced since the beginning of the day 
6 - Energy Lost since the beginning of the day 
 
0 ; 3.857152827464696E7 ; 6.348733809458247E8 ; 0.0 ; 0.0 ; 0.0
1 ; 3.861216940747382E7 ; 6.35784087804893E8 ; 3.857152827464696E7 ; 6.348733809458247E8 ; 0.0
2 ; 3.8653484946153365E7 ; 6.385481947460971E8 ; 7.718369768212077E7 ; 1.2706574687507176E9 ; 0.0
3 ; 3.870404792245684E7 ; 6.431657192471638E8 ; 1.1583718262827414E8 ; 1.9092056634968147E9 ; 0.0
4 ; 3.87585224126473E7 ; 6.496366769879833E8 ; 1.5454123055073097E8 ; 2.5523713827439785E9 ; 0.0
5 ; 3.882776832163978E7 ; 6.579610817581046E8 ; 1.9329975296337828E8 ; 3.2020080597319617E9 ; 0.0
6 ; 3.891409595884836E7 ; 6.681389453737141E8 ; 2.3212752128501806E8 ; 3.8599691414900665E9 ; 0.0
7 ; 3.904768102053943E7 ; 6.801702776052542E8 ; 2.7104161724386644E8 ; 4.528108086863781E9 ; 0.0
8 ; 3.923597714070928E7 ; 6.940550861166959E8 ; 3.1008929826440585E8 ; 5.208278364469035E9 ; 0.0
9 ; 3.951296489647551E7 ; 7.097933764173532E8 ; 3.493252754051151E8 ; 5.9023334505857315E9 ; 0.0
10 ; 3.9947685295153715E7 ; 7.273851518269393E8 ; 3.888382403015906E8 ; 6.612126827003084E9 ; 0.0
11 ; 4.063975629203311E7 ; 7.468304134543904E8 ; 4.2878592559674436E8 ; 7.339511978830024E9 ; 0.0
12 ; 4.175412676669593E7 ; 7.6812916019077E8 ; 4.694256818887775E8 ; 8.086342392284414E9 ; 0.0
13 ; 4.280992935894122E7 ; 7.912813887163651E8 ; 5.111798086554734E8 ; 8.854471552475183E9 ; 0.0
14 ; 4.294053368079741E7 ; 8.162870935218623E8 ; 5.539897380144147E8 ; 9.64575294119155E9 ; 0.0
15 ; 4.298159108381485E7 ; 8.431462669432894E8 ; 5.969302716952121E8 ; 1.0462040034713411E10 ; 0.0
16 ; 4.303081020955928E7 ; 8.718588992102057E8 ; 6.39911862779027E8 ; 1.13051863016567E10 ; 0.0
17 ; 4.3092175488714986E7 ; 9.024249785064231E8 ; 6.829426729885863E8 ; 1.2177045200866905E10 ; 0.0
18 ; 4.314292255519171E7 ; 9.348444910423934E8 ; 7.260348484773012E8 ; 1.307947017937333E10 ; 0.0
19 ; 4.319089857113067E7 ; 9.691174211382264E8 ; 7.69177771032493E8 ; 1.4014314670415722E10 ; 0.0
20 ; 4.323951879643233E7 ; 1.0052437513161949E9 ; 8.123686696036236E8 ; 1.4983432091553947E10 ; 0.0
21 ; 4.328512556225923E7 ; 1.0432234624014906E9 ; 8.55608188400056E8 ; 1.5988675842870142E10 ; 0.0
22 ; 4.3340106251389146E7 ; 1.0830565336299167E9 ; 8.988933139623152E8 ; 1.7031899305271633E10 ; 0.0
23 ; 4.338258538100067E7 ; 1.124742942761183E9 ; 9.422334202137043E8 ; 1.811495583890155E10 ; 0.0
24 ; 4.343904583791585E7 ; 1.1682826661964464E9 ; 9.85616005594705E8 ; 1.9239698781662735E10 ; 0.0
25 ; 4.349498317778876E7 ; 1.205803924487872E9 ; 1.0290550514326209E9 ; 2.040798144785918E10 ; 0.0
26 ; 4.3537676118231334E7 ; 1.205827978682088E9 ; 1.0725500346104096E9 ; 2.1613785372347054E10 ; 0.0
27 ; 4.359134685276267E7 ; 1.205853417592087E9 ; 1.116087710728641E9 ; 2.281961335102914E10 ; 0.0
28 ; 4.363986820048911E7 ; 1.2058802133995876E9 ; 1.1596790575814037E9 ; 2.4025466768621227E10 ; 0.0
29 ; 4.369319877533622E7 ; 1.2059083375344334E9 ; 1.2033189257818928E9 ; 2.5231346982020813E10 ; 0.0
30 ; 4.372738325973505E7 ; 1.205937760791768E9 ; 1.247012124557229E9 ; 2.6437255319555244E10 ; 0.0
31 ; 4.378432586271587E7 ; 1.2059684534456275E9 ; 1.2907395078169641E9 ; 2.764319308034701E10 ; 0.0
32 ; 4.38263128635862E7 ; 1.206000385358225E9 ; 1.33452383367968E9 ; 2.884916153379264E10 ; 0.0
33 ; 4.386466412877616E7 ; 1.2060335260843358E9 ; 1.3783501465432663E9 ; 3.0055161919150867E10 ; 0.0
34 ; 4.390834404032314E7 ; 1.2060678449702845E9 ; 1.4222148106720424E9 ; 3.1261195445235203E10 ; 0.0
35 ; 4.3951893397717156E7 ; 1.206103311247169E9 ; 1.4661231547123656E9 ; 3.2467263290205486E10 ; 0.0
36 ; 4.400077497531296E7 ; 1.2061398941180468E9 ; 1.5100750481100829E9 ; 3.3673366601452656E10 ; 0.0
37 ; 4.403916726791748E7 ; 1.2061775628389063E9 ; 1.5540758230853958E9 ; 3.48795064955707E10 ; 0.0
38 ; 4.406952596390802E7 ; 1.2062162867933478E9 ; 1.5981149903533132E9 ; 3.608568405840961E10 ; 0.0
39 ; 4.410356278024001E7 ; 1.2062560355609622E9 ; 1.6421845163172212E9 ; 3.729190034520296E10 ; 0.0
40 ; 4.41362776791584E7 ; 1.2062967789794729E9 ; 1.6862880790974612E9 ; 3.8498156380763916E10 ; 0.0
41 ; 4.417520433188845E7 ; 1.2063384872007747E9 ; 1.7304243567766197E9 ; 3.9704453159743385E10 ; 0.0
42 ; 4.420365059649684E7 ; 1.2063811307410355E9 ; 1.774599561108508E9 ; 4.091079164694416E10 ; 0.0
43 ; 4.42333839155733E7 ; 1.2064246805250885E9 ; 1.818803211705005E9 ; 4.2117172777685196E10 ; 0.0
44 ; 4.425987453474127E7 ; 1.206469107925362E9 ; 1.8630365956205783E9 ; 4.332359745821028E10 ; 0.0
45 ; 4.4281654049114645E7 ; 1.2065143847956288E9 ; 1.9072964701553195E9 ; 4.453006656613564E10 ; 0.0
46 ; 4.430466141849632E7 ; 1.2065604834998655E9 ; 1.9515781242044342E9 ; 4.5736580950931274E10 ; 0.0
47 ; 4.432745810315158E7 ; 1.2066073769365392E9 ; 1.9958827856229305E9 ; 4.694314143443114E10 ; 0.0
48 ; 4.434640060647402E7 ; 1.2066550385586252E9 ; 2.040210243726082E9 ; 4.8149748811367676E10 ; 0.0
49 ; 4.4368822975745544E7 ; 1.2067034423896816E9 ; 2.084556644332556E9 ; 4.93564038499263E10 ; 0.0
50 ; 4.437266121944915E7 ; 1.2067525630362895E9 ; 2.1289254673083014E9 ; 5.056310729231598E10 ; 0.0
51 ; 4.439064900071474E7 ; 1.2068023756971655E9 ; 2.1732981285277505E9 ; 5.176985985535227E10 ; 0.0
52 ; 4.4405345389675245E7 ; 1.2068528561692476E9 ; 2.2176887775284653E9 ; 5.297666223104944E10 ; 0.0
53 ; 4.441645092315451E7 ; 1.2069039808510413E9 ; 2.2620941229181404E9 ; 5.418351508721869E10 ; 0.0
54 ; 4.443584739832424E7 ; 1.2069557267434983E9 ; 2.306510573841295E9 ; 5.539041906806973E10 ; 0.0
55 ; 4.4446320283710204E7 ; 1.207008071448691E9 ; 2.350946421239619E9 ; 5.659737479481323E10 ; 0.0
56 ; 4.445430356689795E7 ; 1.2070609931665254E9 ; 2.395392741523329E9 ; 5.7804382866261925E10 ; 0.0
57 ; 4.446662650318001E7 ; 1.2071144706897235E9 ; 2.4398470450902267E9 ; 5.901144385942845E10 ; 0.0
58 ; 4.448444043138878E7 ; 1.2071684833972914E9 ; 2.4843136715934067E9 ; 6.021855833011817E10 ; 0.0
59 ; 4.4488914442812026E7 ; 1.207223011246666E9 ; 2.5287981120247955E9 ; 6.1425726813515465E10 ; 0.0
60 ; 4.45036583689873E7 ; 1.20727803476473E9 ; 2.5732870264676075E9 ; 6.263294982476213E10 ; 0.0
61 ; 4.450470968529316E7 ; 1.2073335350378597E9 ; 2.6177906848365946E9 ; 6.384022785952686E10 ; 0.0
62 ; 4.452592644599855E7 ; 1.207389493701158E9 ; 2.662295394521888E9 ; 6.504756139456472E10 ; 0.0
63 ; 4.452531386647488E7 ; 1.2074458929270172E9 ; 2.7068213209678864E9 ; 6.625495088826588E10 ; 0.0
64 ; 4.454081695085572E7 ; 1.207502715413134E9 ; 2.7513466348343616E9 ; 6.7462396781192894E10 ; 0.0
65 ; 4.454558010496314E7 ; 1.2075599443700914E9 ; 2.7958874517852173E9 ; 6.8669899496606026E10 ; 0.0
66 ; 4.455690958371715E7 ; 1.207617563508614E9 ; 2.8404330318901806E9 ; 6.987745944097612E10 ; 0.0
67 ; 4.4559692110556364E7 ; 1.2076755570265844E9 ; 2.884989941473898E9 ; 7.108507700448474E10 ; 0.0
68 ; 4.456524450037664E7 ; 1.207733909595903E9 ; 2.9295496335844545E9 ; 7.229275256151132E10 ; 0.0
69 ; 4.457735767163004E7 ; 1.207792606349266E9 ; 2.974114878084831E9 ; 7.350048647110722E10 ; 0.0
70 ; 4.457389345746237E7 ; 1.2078516328669252E9 ; 3.018692235756461E9 ; 7.470827907745648E10 ; 0.0
71 ; 4.458821260716397E7 ; 1.2079109751634798E9 ; 3.0632661292139235E9 ; 7.591613071032341E10 ; 0.0
72 ; 4.459545856477837E7 ; 1.207970619674759E9 ; 3.1078543418210874E9 ; 7.71240416854869E10 ; 0.0
73 ; 4.459782613008835E7 ; 1.2080305532448282E9 ; 3.1524498003858657E9 ; 7.833201230516165E10 ; 0.0
74 ; 4.4602841812447995E7 ; 1.2080907631131616E9 ; 3.197047626515954E9 ; 7.954004285840648E10 ; 0.0
75 ; 4.461036918316089E7 ; 1.2081512369020076E9 ; 3.241650468328402E9 ; 8.074813362151964E10 ; 0.0
76 ; 4.4606284028478146E7 ; 1.2082119626039772E9 ; 3.286260837511563E9 ; 8.195628485842165E10 ; 0.0
77 ; 4.461380243226299E7 ; 1.208272928569872E9 ; 3.330867121540041E9 ; 8.316449682102562E10 ; 0.0
78 ; 4.46069340829319E7 ; 1.2083341234967756E9 ; 3.375480923972304E9 ; 8.437276974959549E10 ; 0.0
79 ; 4.459532521047579E7 ; 1.2083955364164171E9 ; 3.420087858055236E9 ; 8.558110387309227E10 ; 0.0
80 ; 4.45819614693749E7 ; 1.208457156683823E9 ; 3.464683183265712E9 ; 8.678949940950868E10 ; 0.0
81 ; 4.457329899696603E7 ; 1.2085189739662611E9 ; 3.509265144735087E9 ; 8.79979565661925E10 ; 0.0
82 ; 4.455822261703977E7 ; 1.2085809782324855E9 ; 3.553838443732053E9 ; 8.920647554015877E10 ; 0.0
83 ; 4.4546283361963555E7 ; 1.2086431597422874E9 ; 3.5983966663490925E9 ; 9.041505651839125E10 ; 0.0
84 ; 4.453048698116833E7 ; 1.2087055090363507E9 ; 3.642942949711056E9 ; 9.162369967813354E10 ; 0.0
85 ; 4.4531829622812465E7 ; 1.2087680169264154E9 ; 3.6874734366922245E9 ; 9.283240518716989E10 ; 0.0
86 ; 4.451143749505406E7 ; 1.2088306744857466E9 ; 3.732005266315037E9 ; 9.404117320409631E10 ; 0.0
87 ; 4.449773167811373E7 ; 1.2088934730399077E9 ; 3.776516703810091E9 ; 9.525000387858206E10 ; 0.0
88 ; 4.4484752985159226E7 ; 1.2089564041578333E9 ; 3.821014435488205E9 ; 9.645889735162196E10 ; 0.0
89 ; 4.4473558087070115E7 ; 1.2090194596432006E9 ; 3.8654991884733644E9 ; 9.76678537557798E10 ; 0.0
90 ; 4.445882207114333E7 ; 1.2090826315260904E9 ; 3.9099727465604343E9 ; 9.8876873215423E10 ; 0.0
91 ; 4.444051593434341E7 ; 1.209145912054935E9 ; 3.9544315686315775E9 ; 1.000859558469491E11 ; 0.0
92 ; 4.442485503735341E7 ; 1.2092092936887474E9 ; 3.998872084565921E9 ; 1.0129510175900403E11 ; 0.0
93 ; 4.441476927160955E7 ; 1.2092727690896244E9 ; 4.0432969396032743E9 ; 1.0250431105269278E11 ; 0.0
94 ; 4.439240564272211E7 ; 1.2093363311155138E9 ; 4.087711708874884E9 ; 1.0371358382178241E11 ; 0.0
95 ; 4.437616914940733E7 ; 1.2093999728132474E9 ; 4.1321041145176063E9 ; 1.0492292015289792E11 ; 0.0
96 ; 4.435932319708401E7 ; 1.2094636874118228E9 ; 4.1764802836670136E9 ; 1.0613232012571117E11 ; 0.0
97 ; 4.433965604456989E7 ; 1.2095274683159325E9 ; 4.2208396068640976E9 ; 1.0734178381312299E11 ; 0.0
98 ; 4.432484898492332E7 ; 1.209591309099733E9 ; 4.2651792629086676E9 ; 1.0855131128143892E11 ; 0.0
99 ; 4.4306438491318986E7 ; 1.2096552035008435E9 ; 4.309504111893591E9 ; 1.0976090259053865E11 ; 0.0
100 ; 4.429220513474009E7 ; 1.209719145414569E9 ; 4.35381055038491E9 ; 1.1097055779403949E11 ; 0.0
101 ; 4.426784706899033E7 ; 1.2097831288883405E9 ; 4.3981027555196495E9 ; 1.1218027693945406E11 ; 0.0
102 ; 4.4247925888669334E7 ; 1.2098471481163652E9 ; 4.44237060258864E9 ; 1.1339006006834239E11 ; 0.0
103 ; 4.4227121805122904E7 ; 1.2099111974344773E9 ; 4.486618528477309E9 ; 1.1459990721645876E11 ; 0.0
104 ; 4.4211067837277494E7 ; 1.2099752713151865E9 ; 4.530845650282433E9 ; 1.1580981841389323E11 ; 0.0
105 ; 4.418682821485873E7 ; 1.2100393643629127E9 ; 4.57505671811971E9 ; 1.1701979368520842E11 ; 0.0
106 ; 4.417048572091015E7 ; 1.2101034713094044E9 ; 4.619243546334569E9 ; 1.1822983304957133E11 ; 0.0
107 ; 4.415006739006234E7 ; 1.2101675870093298E9 ; 4.663414032055479E9 ; 1.1943993652088074E11 ; 0.0
108 ; 4.4123865792196035E7 ; 1.21023170643604E9 ; 4.707564099445541E9 ; 1.2065010410789006E11 ; 0.0
109 ; 4.410111103522248E7 ; 1.2102958246774917E9 ; 4.751687965237738E9 ; 1.218603358143261E11 ; 0.0
110 ; 4.4081379271208584E7 ; 1.210359936932328E9 ; 4.79578907627296E9 ; 1.2307063163900359E11 ; 0.0
111 ; 4.406362146142308E7 ; 1.2104240385061078E9 ; 4.839870455544168E9 ; 1.2428099157593591E11 ; 0.0
112 ; 4.4035472056086056E7 ; 1.2104881248076823E9 ; 4.883934077005591E9 ; 1.2549141561444202E11 ; 0.0
113 ; 4.4010127112940006E7 ; 1.2105521913457093E9 ; 4.927969549061677E9 ; 1.267019037392497E11 ; 0.0
114 ; 4.3984757442110784E7 ; 1.2106162337253022E9 ; 4.971979676174617E9 ; 1.279124559305954E11 ; 0.0
115 ; 4.396136211545923E7 ; 1.2106802476448047E9 ; 5.015964433616728E9 ; 1.291230721643207E11 ; 0.0
116 ; 4.3937410185523264E7 ; 1.2107442288926945E9 ; 5.059925795732187E9 ; 1.303337524119655E11 ; 0.0
117 ; 4.391520199324415E7 ; 1.2108081733446014E9 ; 5.10386320591771E9 ; 1.315444966408582E11 ; 0.0
118 ; 4.388460170055954E7 ; 1.2108720769604397E9 ; 5.147778407910954E9 ; 1.327553048142028E11 ; 0.0
119 ; 4.3859846546390906E7 ; 1.210935935781654E9 ; 5.191663009611514E9 ; 1.3396617689116324E11 ; 0.0
120 ; 4.3835630656162485E7 ; 1.210999745928565E9 ; 5.235522856157905E9 ; 1.3517711282694489E11 ; 0.0
121 ; 4.38113628843432E7 ; 1.2110635035978212E9 ; 5.279358486814067E9 ; 1.3638811257287344E11 ; 0.0
122 ; 4.37750916384555E7 ; 1.211127205059945E9 ; 5.32316984969841E9 ; 1.3759917607647125E11 ; 0.0
123 ; 4.375439977796106E7 ; 1.2111908466569734E9 ; 5.366944941336865E9 ; 1.388103032815312E11 ; 0.0
124 ; 4.37226090978038E7 ; 1.2112544248001845E9 ; 5.410699341114826E9 ; 1.4002149412818817E11 ; 0.0
125 ; 4.369245234819405E7 ; 1.211317935967918E9 ; 5.45442195021263E9 ; 1.4123274855298834E11 ; 0.0
126 ; 4.366774447054656E7 ; 1.2113813767034693E9 ; 5.498114402560824E9 ; 1.4244406648895627E11 ; 0.0
127 ; 4.363244322668692E7 ; 1.211444743613069E9 ; 5.541782147031371E9 ; 1.4365544786565973E11 ; 0.0
128 ; 4.359839044473601E7 ; 1.2115080333639367E9 ; 5.585414590258058E9 ; 1.448668926092728E11 ; 0.0
129 ; 4.357454279308413E7 ; 1.2115712426824048E9 ; 5.629012980702794E9 ; 1.4607840064263672E11 ; 0.0
130 ; 4.353418641834943E7 ; 1.211634368352119E9 ; 5.672587523495878E9 ; 1.4728997188531912E11 ; 0.0
131 ; 4.3492725758948326E7 ; 1.2116974072122998E9 ; 5.7161217099142275E9 ; 1.4850160625367123E11 ; 0.0
132 ; 4.34454587821105E7 ; 1.2117603561560721E9 ; 5.759614435673176E9 ; 1.4971330366088354E11 ; 0.0
133 ; 4.3407901740174785E7 ; 1.2118232121288574E9 ; 5.803059894455286E9 ; 1.509250640170396E11 ; 0.0
134 ; 4.336585011684469E7 ; 1.2118859721268213E9 ; 5.846467796195461E9 ; 1.5213688722916846E11 ; 0.0
135 ; 4.330672666729722E7 ; 1.211948633195385E9 ; 5.889833646312306E9 ; 1.533487732012953E11 ; 0.0
136 ; 4.326682313863025E7 ; 1.2120111924277856E9 ; 5.933140372979604E9 ; 1.5456072183449066E11 ; 0.0
137 ; 4.322031013018008E7 ; 1.2120736469636924E9 ; 5.976407196118234E9 ; 1.5577273302691846E11 ; 0.0
138 ; 4.3172258418356955E7 ; 1.212135993987874E9 ; 6.019627506248414E9 ; 1.5698480667388214E11 ; 0.0
139 ; 4.3129262309869245E7 ; 1.2121982307289133E9 ; 6.062799764666771E9 ; 1.5819694266787003E11 ; 0.0
140 ; 4.308596899904739E7 ; 1.2122603544579685E9 ; 6.10592902697664E9 ; 1.5940914089859894E11 ; 0.0
141 ; 4.3027112786543034E7 ; 1.2123223624875813E9 ; 6.149014995975687E9 ; 1.6062140125305692E11 ; 0.0
142 ; 4.2987737284188375E7 ; 1.212384252170527E9 ; 6.19204210876223E9 ; 1.618337236155445E11 ; 0.0
143 ; 4.2932895045886084E7 ; 1.212446020898705E9 ; 6.235029846046418E9 ; 1.6304610786771503E11 ; 0.0
144 ; 4.288433690013513E7 ; 1.2125076661020722E9 ; 6.277962741092304E9 ; 1.6425855388861374E11 ; 0.0
145 ; 4.284917984911458E7 ; 1.2125691852476122E9 ; 6.320847077992439E9 ; 1.6547106155471582E11 ; 0.0
146 ; 4.281885180342239E7 ; 1.2126305758383417E9 ; 6.363696257841554E9 ; 1.6668363073996344E11 ; 0.0
147 ; 4.278863168782E7 ; 1.2126918354123533E9 ; 6.406515109644976E9 ; 1.678962613158018E11 ; 0.0
148 ; 4.274646985381566E7 ; 1.2127529615418925E9 ; 6.449303741332796E9 ; 1.6910895315121414E11 ; 0.0
149 ; 4.271878052410993E7 ; 1.2128139518324654E9 ; 6.492050211186612E9 ; 1.7032170611275604E11 ; 0.0
150 ; 4.268925614072839E7 ; 1.212874803921981E9 ; 6.534768991710722E9 ; 1.715345200645885E11 ; 0.0
151 ; 4.265044371484463E7 ; 1.2129355154799204E9 ; 6.57745824785145E9 ; 1.7274739486851047E11 ; 0.0
152 ; 4.262494069645506E7 ; 1.2129960842065384E9 ; 6.620108691566295E9 ; 1.739603303839904E11 ; 0.0
153 ; 4.258695493549574E7 ; 1.2130565078320904E9 ; 6.66273363226275E9 ; 1.7517332646819693E11 ; 0.0
154 ; 4.255741304891185E7 ; 1.2131167841160884E9 ; 6.705320587198245E9 ; 1.7638638297602902E11 ; 0.0
155 ; 4.252051706979993E7 ; 1.2131769108465805E9 ; 6.747878000247157E9 ; 1.775994997601451E11 ; 0.0
156 ; 4.248957910441348E7 ; 1.2132368858394587E9 ; 6.790398517316957E9 ; 1.788126766709917E11 ; 0.0
157 ; 4.244868051323148E7 ; 1.2132967069377875E9 ; 6.8328880964213705E9 ; 1.8002591355683115E11 ; 0.0
158 ; 4.2414310463069245E7 ; 1.2133563720111568E9 ; 6.875336776934602E9 ; 1.8123921026376892E11 ; 0.0
159 ; 4.238337267672214E7 ; 1.213415878955058E9 ; 6.917751087397671E9 ; 1.824525666357801E11 ; 0.0
160 ; 4.234835555236206E7 ; 1.2134752256902814E9 ; 6.960134460074393E9 ; 1.8366598251473514E11 ; 0.0
161 ; 4.230903912280199E7 ; 1.2135344101623302E9 ; 7.002482815626756E9 ; 1.848794577404254E11 ; 0.0
162 ; 4.2279350735512346E7 ; 1.213593430340861E9 ; 7.0447918547495575E9 ; 1.8609299215058774E11 ; 0.0
163 ; 4.22353761718362E7 ; 1.2136522842191393E9 ; 7.08707120548507E9 ; 1.873065855809286E11 ; 0.0
164 ; 4.22096266283039E7 ; 1.213710969813513E9 ; 7.129306581656906E9 ; 1.8852023786514774E11 ; 0.0
165 ; 4.21671951399575E7 ; 1.2137694851629057E9 ; 7.17151620828521E9 ; 1.8973394883496124E11 ; 0.0
166 ; 4.213686284421152E7 ; 1.2138278283283267E9 ; 7.213683403425167E9 ; 1.9094771832012415E11 ; 0.0
167 ; 4.210183680753858E7 ; 1.2138859973923955E9 ; 7.255820266269379E9 ; 1.9216154614845248E11 ; 0.0
168 ; 4.205607619334884E7 ; 1.2139439904588847E9 ; 7.297922103076918E9 ; 1.9337543214584488E11 ; 0.0
169 ; 4.202736797974907E7 ; 1.2140018056522777E9 ; 7.339978179270267E9 ; 1.9458937613630377E11 ; 0.0
170 ; 4.198931464078144E7 ; 1.2140594411173382E9 ; 7.382005547250015E9 ; 1.9580337794195605E11 ; 0.0
171 ; 4.19559078476627E7 ; 1.2141168950186992E9 ; 7.423994861890797E9 ; 1.970174373830734E11 ; 0.0
172 ; 4.191746605590707E7 ; 1.21417416554046E9 ; 7.46595076973846E9 ; 1.982315542780921E11 ; 0.0
173 ; 4.188124536783474E7 ; 1.2142312508858025E9 ; 7.507868235794367E9 ; 1.9944572844363257E11 ; 0.0
174 ; 4.1854352837631896E7 ; 1.2142881492766128E9 ; 7.549749481162202E9 ; 2.0065995969451837E11 ; 0.0
175 ; 4.183180926906343E7 ; 1.2143448589531221E9 ; 7.591603833999834E9 ; 2.0187424784379498E11 ; 0.0
176 ; 4.181180820998976E7 ; 1.2144013781735559E9 ; 7.633435643268897E9 ; 2.030885927027481E11 ; 0.0
177 ; 4.178979885714857E7 ; 1.2144577052137952E9 ; 7.675247451478887E9 ; 2.0430299408092166E11 ; 0.0
178 ; 4.1770057380958065E7 ; 1.2145138383670478E9 ; 7.717037250336035E9 ; 2.0551745178613547E11 ; 0.0
179 ; 4.174184209257983E7 ; 1.214569775943533E9 ; 7.758807307716992E9 ; 2.067319656245025E11 ; 0.0
180 ; 4.172273056304812E7 ; 1.2146255162701735E9 ; 7.800549149809572E9 ; 2.0794653540044604E11 ; 0.0
181 ; 4.169450236935998E7 ; 1.2146810576902988E9 ; 7.842271880372621E9 ; 2.0916116091671622E11 ; 0.0
182 ; 4.167310230236324E7 ; 1.2147363985633574E9 ; 7.883966382741981E9 ; 2.1037584197440652E11 ; 0.0
183 ; 4.165468531231961E7 ; 1.2147915372646408E9 ; 7.925639485044344E9 ; 2.1159057837296988E11 ; 0.0
184 ; 4.162905598139164E7 ; 1.214846472185011E9 ; 7.967294170356664E9 ; 2.1280536991023453E11 ; 0.0
185 ; 4.1609296310988426E7 ; 1.2149012017306426E9 ; 8.008923226338056E9 ; 2.1402021638241953E11 ; 0.0
186 ; 4.158879091676262E7 ; 1.2149557243227696E9 ; 8.050532522649044E9 ; 2.1523511758415018E11 ; 0.0
187 ; 4.156529878371492E7 ; 1.2150100383974414E9 ; 8.092121313565806E9 ; 2.1645007330847296E11 ; 0.0
188 ; 4.154182207418084E7 ; 1.2150641424052856E9 ; 8.133686612349522E9 ; 2.176650833468704E11 ; 0.0
189 ; 4.15108987446958E7 ; 1.2151180348112798E9 ; 8.175228434423702E9 ; 2.1888014748927567E11 ; 0.0
190 ; 4.149538198787333E7 ; 1.2151717140945306E9 ; 8.216739333168398E9 ; 2.2009526552408694E11 ; 0.0
191 ; 4.147255364362581E7 ; 1.2152251787480564E9 ; 8.258234715156271E9 ; 2.213104372381815E11 ; 0.0
192 ; 4.145233847048859E7 ; 1.2152784272785828E9 ; 8.299707268799897E9 ; 2.2252566241692953E11 ; 0.0
193 ; 4.142135277238808E7 ; 1.2153314582063375E9 ; 8.341159607270386E9 ; 2.2374094084420813E11 ; 0.0
194 ; 4.1403397235233136E7 ; 1.215384270064859E9 ; 8.382580960042774E9 ; 2.2495627230241446E11 ; 0.0
195 ; 4.13805548875999E7 ; 1.215436861400804E9 ; 8.4239843572780075E9 ; 2.261716565724793E11 ; 0.0
196 ; 4.135412089711081E7 ; 1.2154892307737677E9 ; 8.465364912165607E9 ; 2.2738709343388013E11 ; 0.0
