CSV File for the Network on Day 43
1 - Minute m 
2 - Power Consumed at minute m 
3 - Power Produced at minute m 
4 - Energy Consumed since the beginning of the day 
5 - Energy Produced since the beginning of the day 
6 - Energy Lost since the beginning of the day 
 
0 ; 3.839976400381787E7 ; 6.330655007840819E8 ; 0.0 ; 0.0 ; 0.0
1 ; 3.844382680293288E7 ; 6.339713195357368E8 ; 3.839976400381787E7 ; 6.330655007840819E8 ; 0.0
2 ; 3.848245612469403E7 ; 6.367309360960665E8 ; 7.684359080675074E7 ; 1.2670368203198187E9 ; 0.0
3 ; 3.853053867907105E7 ; 6.413444037610664E8 ; 1.1532604693144476E8 ; 1.9037677564158852E9 ; 0.0
4 ; 3.858363235704963E7 ; 6.478117715528483E8 ; 1.538565856105158E8 ; 2.5451121601769514E9 ; 0.0
5 ; 3.865319924548654E7 ; 6.561330835569309E8 ; 1.9244021796756542E8 ; 3.1929239317297997E9 ; 0.0
6 ; 3.874088164002904E7 ; 6.663083782943572E8 ; 2.3109341721305197E8 ; 3.849057015286731E9 ; 0.0
7 ; 3.8876193334237255E7 ; 6.783376881480106E8 ; 2.69834298853081E8 ; 4.515365393581088E9 ; 0.0
8 ; 3.9059024090849675E7 ; 6.922210388620679E8 ; 3.0871049218731827E8 ; 5.193703081729098E9 ; 0.0
9 ; 3.93466721150035E7 ; 7.079584491320553E8 ; 3.4776951627816796E8 ; 5.8859241205911665E9 ; 0.0
10 ; 3.977776947890112E7 ; 7.255499303004239E8 ; 3.871161883931714E8 ; 6.593882569723222E9 ; 0.0
11 ; 4.0468687257053554E7 ; 7.449954861690924E8 ; 4.268939578720726E8 ; 7.319432500023645E9 ; 0.0
12 ; 4.1576555763458304E7 ; 7.662951129361422E8 ; 4.6736264512912613E8 ; 8.064427986192738E9 ; 0.0
13 ; 4.263230838090238E7 ; 7.894487992591217E8 ; 5.0893920089258444E8 ; 8.83072309912888E9 ; 0.0
14 ; 4.275597474547644E7 ; 8.144565264425054E8 ; 5.515715092734869E8 ; 9.620171898388E9 ; 0.0
15 ; 4.280888918305185E7 ; 8.41318268742116E8 ; 5.943274840189633E8 ; 1.0434628424830505E10 ; 0.0
16 ; 4.2857632915971056E7 ; 8.700339937750704E8 ; 6.371363732020152E8 ; 1.127594669357262E10 ; 0.0
17 ; 4.2905230305773415E7 ; 9.006036630203258E8 ; 6.799940061179862E8 ; 1.214598068734769E10 ; 0.0
18 ; 4.295849842568243E7 ; 9.330272323923628E8 ; 7.228992364237596E8 ; 1.3046584350368017E10 ; 0.0
19 ; 4.300924879243418E7 ; 9.673046528690699E8 ; 7.65857734849442E8 ; 1.397961158276038E10 ; 0.0
20 ; 4.306483169437817E7 ; 1.0034358711544521E9 ; 8.088669836418762E8 ; 1.494691623562945E10 ; 0.0
21 ; 4.3117613030344754E7 ; 1.0414208303573419E9 ; 8.519318153362544E8 ; 1.5950352106783901E10 ; 0.0
22 ; 4.31600632251591E7 ; 1.081259470668663E9 ; 8.950494283665991E8 ; 1.6991772937141243E10 ; 0.0
23 ; 4.320862361627754E7 ; 1.1229517300218046E9 ; 9.382094915917581E8 ; 1.8073032407809906E10 ; 0.0
24 ; 4.326361032828402E7 ; 1.1664975447230937E9 ; 9.814181152080357E8 ; 1.919598413783171E10 ; 0.0
25 ; 4.331433883399575E7 ; 1.2040250954311252E9 ; 1.0246817255363197E9 ; 2.0362481682554806E10 ; 0.0
26 ; 4.3355123244675346E7 ; 1.2040556039204502E9 ; 1.0679960643703154E9 ; 2.156650677798593E10 ; 0.0
27 ; 4.340549685269356E7 ; 1.2040876207203126E9 ; 1.1113511876149907E9 ; 2.277056238190638E10 ; 0.0
28 ; 4.3453123465585604E7 ; 1.2041210810288458E9 ; 1.1547566844676843E9 ; 2.3974650002626694E10 ; 0.0
29 ; 4.349967616859241E7 ; 1.2041559208496385E9 ; 1.19820980793327E9 ; 2.517877108365554E10 ; 0.0
30 ; 4.354820213688891E7 ; 1.2041920773133247E9 ; 1.2417094841018624E9 ; 2.638292700450518E10 ; 0.0
31 ; 4.35944829970755E7 ; 1.2042294889459627E9 ; 1.2852576862387514E9 ; 2.7587119081818504E10 ; 0.0
32 ; 4.3635374054965466E7 ; 1.204268095887485E9 ; 1.328852169235827E9 ; 2.8791348570764465E10 ; 0.0
33 ; 4.368827701766325E7 ; 1.2043078400641758E9 ; 1.3724875432907925E9 ; 2.999561666665195E10 ; 0.0
34 ; 4.372418842602141E7 ; 1.2043486653195388E9 ; 1.4161758203084557E9 ; 3.1199924506716125E10 ; 0.0
35 ; 4.3768392610083655E7 ; 1.2043905175080936E9 ; 1.459900008734477E9 ; 3.2404273172035664E10 ; 0.0
36 ; 4.380557942310105E7 ; 1.2044333445566452E9 ; 1.5036684013445606E9 ; 3.360866368954376E10 ; 0.0
37 ; 4.3845549284400366E7 ; 1.2044770964974194E9 ; 1.5474739807676616E9 ; 3.48130970341004E10 ; 0.0
38 ; 4.388048024620015E7 ; 1.2045217254772365E9 ; 1.591319530052062E9 ; 3.6017574130597824E10 ; 0.0
39 ; 4.3919866294424914E7 ; 1.2045671857465715E9 ; 1.6352000102982621E9 ; 3.722209585607506E10 ; 0.0
40 ; 4.394971697122982E7 ; 1.2046134336320214E9 ; 1.6791198765926871E9 ; 3.842666304182163E10 ; 0.0
41 ; 4.397942393886551E7 ; 1.204660427495328E9 ; 1.723069593563917E9 ; 3.963127647545365E10 ; 0.0
42 ; 4.4011063982925124E7 ; 1.204708127681745E9 ; 1.7670490175027823E9 ; 4.083593690294898E10 ; 0.0
43 ; 4.40363345946928E7 ; 1.2047564964601896E9 ; 1.8110600814857075E9 ; 4.204064503063073E10 ; 0.0
44 ; 4.40635367972844E7 ; 1.2048054979572783E9 ; 1.8550964160804002E9 ; 4.324540152709092E10 ; 0.0
45 ; 4.409298054839772E7 ; 1.2048550980870519E9 ; 1.8991599528776846E9 ; 4.4450207025048195E10 ; 0.0
46 ; 4.4110358570426546E7 ; 1.2049052644778967E9 ; 1.9432529334260824E9 ; 4.565506212313525E10 ; 0.0
47 ; 4.412743921549877E7 ; 1.2049559663979373E9 ; 1.9873632919965088E9 ; 4.6859967387613144E10 ; 0.0
48 ; 4.4145909906788565E7 ; 1.2050071746799383E9 ; 2.0314907312120075E9 ; 4.806492335401108E10 ; 0.0
49 ; 4.416499728510614E7 ; 1.205058861646568E9 ; 2.075636641118796E9 ; 4.926993052869102E10 ; 0.0
50 ; 4.4173940653874926E7 ; 1.2051110010367026E9 ; 2.1198016384039023E9 ; 5.0474989390337585E10 ; 0.0
51 ; 4.4185605789603576E7 ; 1.2051635679333043E9 ; 2.1639755790577774E9 ; 5.168010039137429E10 ; 0.0
52 ; 4.4199956216656946E7 ; 1.205216538693289E9 ; 2.208161184847381E9 ; 5.2885263959307594E10 ; 0.0
53 ; 4.420934617717185E7 ; 1.2052698908796883E9 ; 2.2523611410640383E9 ; 5.4090480498000885E10 ; 0.0
54 ; 4.4222252804218166E7 ; 1.2053236031963274E9 ; 2.29657048724121E9 ; 5.529575038888057E10 ; 0.0
55 ; 4.4232946558088765E7 ; 1.205377655425166E9 ; 2.3407927400454283E9 ; 5.65010739920769E10 ; 0.0
56 ; 4.425061070538828E7 ; 1.2054320283663926E9 ; 2.385025686603517E9 ; 5.770645164750206E10 ; 0.0
57 ; 4.42536255376043E7 ; 1.2054867037813125E9 ; 2.429276297308905E9 ; 5.8911883675868454E10 ; 0.0
58 ; 4.426228906467795E7 ; 1.205541664338029E9 ; 2.4735299228465095E9 ; 6.0117370379649765E10 ; 0.0
59 ; 4.427245832359279E7 ; 1.2055968935598924E9 ; 2.517792211911187E9 ; 6.132291204398779E10 ; 0.0
60 ; 4.428077879879311E7 ; 1.2056523757766604E9 ; 2.56206467023478E9 ; 6.252850893754768E10 ; 0.0
61 ; 4.428724387405987E7 ; 1.2057080960783021E9 ; 2.606345449033573E9 ; 6.373416131332434E10 ; 0.0
62 ; 4.4300120340121455E7 ; 1.205764040271356E9 ; 2.650632692907633E9 ; 6.493986940940264E10 ; 0.0
63 ; 4.430833095787889E7 ; 1.2058201948377523E9 ; 2.694932813247754E9 ; 6.6145633449673996E10 ; 0.0
64 ; 4.430533628973208E7 ; 1.2058765468959923E9 ; 2.739241144205633E9 ; 6.735145364451175E10 ; 0.0
65 ; 4.432171611270451E7 ; 1.2059330841645868E9 ; 2.783546480495365E9 ; 6.8557330191407745E10 ; 0.0
66 ; 4.431910985651863E7 ; 1.2059897949276383E9 ; 2.8278681966080694E9 ; 6.976326327557233E10 ; 0.0
67 ; 4.432387550960831E7 ; 1.2060466680024643E9 ; 2.872187306464588E9 ; 7.096925307049997E10 ; 0.0
68 ; 4.43337612057668E7 ; 1.206103692709154E9 ; 2.9165111819741964E9 ; 7.217529973850244E10 ; 0.0
69 ; 4.4340864910463944E7 ; 1.2061608588419518E9 ; 2.960844943179963E9 ; 7.33814034312116E10 ; 0.0
70 ; 4.43437340918386E7 ; 1.2062181566423707E9 ; 3.005185808090427E9 ; 7.458756429005354E10 ; 0.0
71 ; 4.4344179170761414E7 ; 1.2062755767739267E9 ; 3.0495295421822653E9 ; 7.57937824466959E10 ; 0.0
72 ; 4.434547319565394E7 ; 1.2063331102984138E9 ; 3.093873721353027E9 ; 7.700005802346983E10 ; 0.0
73 ; 4.435100703524371E7 ; 1.2063907486536164E9 ; 3.138219194548681E9 ; 7.820639113376825E10 ; 0.0
74 ; 4.435424246117415E7 ; 1.2064484836323767E9 ; 3.1825702015839243E9 ; 7.941278188242186E10 ; 0.0
75 ; 4.435832138456415E7 ; 1.206506307362938E9 ; 3.2269244440450983E9 ; 8.061923036605423E10 ; 0.0
76 ; 4.435699838896891E7 ; 1.20656421229048E9 ; 3.271282765429662E9 ; 8.182573667341718E10 ; 0.0
77 ; 4.435657218245551E7 ; 1.2066221911597757E9 ; 3.315639763818631E9 ; 8.303230088570766E10 ; 0.0
78 ; 4.434591724403636E7 ; 1.2066802369988997E9 ; 3.3599963360010867E9 ; 8.423892307686743E10 ; 0.0
79 ; 4.433528003437419E7 ; 1.206738343103919E9 ; 3.404342253245123E9 ; 8.544560331386633E10 ; 0.0
80 ; 4.4320874577686585E7 ; 1.2067965030245104E9 ; 3.448677533279497E9 ; 8.665234165697025E10 ; 0.0
81 ; 4.4307850984333046E7 ; 1.2068547105504394E9 ; 3.492998407857184E9 ; 8.785913815999475E10 ; 0.0
82 ; 4.429643295674377E7 ; 1.2069129596988502E9 ; 3.537306258841517E9 ; 8.90659928705452E10 ; 0.0
83 ; 4.427836429987823E7 ; 1.2069712447023149E9 ; 3.5816026917982607E9 ; 9.027290583024405E10 ; 0.0
84 ; 4.426625705962479E7 ; 1.2070295599975932E9 ; 3.625881056098139E9 ; 9.147987707494637E10 ; 0.0
85 ; 4.424601007395485E7 ; 1.2070879002150548E9 ; 3.6701473131577635E9 ; 9.268690663494395E10 ; 0.0
86 ; 4.423569823262012E7 ; 1.2071462601687298E9 ; 3.7143933232317185E9 ; 9.389399453515901E10 ; 0.0
87 ; 4.422090269407011E7 ; 1.2072046348469398E9 ; 3.758629021464339E9 ; 9.510114079532774E10 ; 0.0
88 ; 4.419751037868844E7 ; 1.2072630194034753E9 ; 3.802849924158409E9 ; 9.630834543017468E10 ; 0.0
89 ; 4.418530629286331E7 ; 1.2073214091492891E9 ; 3.8470474345370975E9 ; 9.751560844957816E10 ; 0.0
90 ; 4.417308905269784E7 ; 1.207379799544666E9 ; 3.891232740829961E9 ; 9.872292985872745E10 ; 0.0
91 ; 4.415197071262709E7 ; 1.207438186191845E9 ; 3.9354058298826585E9 ; 9.993030965827211E10 ; 0.0
92 ; 4.413005747085648E7 ; 1.2074965648280618E9 ; 3.9795578005952854E9 ; 1.0113774784446396E11 ; 0.0
93 ; 4.41105079346078E7 ; 1.2075549313189895E9 ; 4.023687858066142E9 ; 1.0234524440929202E11 ; 0.0
94 ; 4.409387834782774E7 ; 1.2076132816525464E9 ; 4.06779836600075E9 ; 1.0355279934061101E11 ; 0.0
95 ; 4.4074085732386634E7 ; 1.2076716119330554E9 ; 4.111892244348578E9 ; 1.0476041262226355E11 ; 0.0
96 ; 4.4049080471248E7 ; 1.2077299183757267E9 ; 4.1559663300809646E9 ; 1.0596808423419661E11 ; 0.0
97 ; 4.4033451153272666E7 ; 1.2077881973014517E9 ; 4.2000154105522127E9 ; 1.0717581415257234E11 ; 0.0
98 ; 4.4012901739390016E7 ; 1.207846445131878E9 ; 4.2440488617054853E9 ; 1.083836023498738E11 ; 0.0
99 ; 4.399319878239445E7 ; 1.2079046583847618E9 ; 4.2880617634448752E9 ; 1.0959144879500568E11 ; 0.0
100 ; 4.3970928543655425E7 ; 1.2079628336695676E9 ; 4.33205496222727E9 ; 1.1079935345339044E11 ; 0.0
101 ; 4.3944876713357314E7 ; 1.2080209676833127E9 ; 4.3760258907709255E9 ; 1.1200731628706001E11 ; 0.0
102 ; 4.392390774977132E7 ; 1.2080790572066298E9 ; 4.4199707674842825E9 ; 1.1321533725474333E11 ; 0.0
103 ; 4.390188106768201E7 ; 1.2081370991000457E9 ; 4.463894675234054E9 ; 1.1442341631194997E11 ; 0.0
104 ; 4.387442325607846E7 ; 1.2081950903004541E9 ; 4.507796556301736E9 ; 1.1563155341105002E11 ; 0.0
105 ; 4.384670682179701E7 ; 1.20825302781778E9 ; 4.551670979557815E9 ; 1.1683974850135048E11 ; 0.0
106 ; 4.383036888718422E7 ; 1.208310908731813E9 ; 4.595517686379612E9 ; 1.1804800152916826E11 ; 0.0
107 ; 4.3802950722590335E7 ; 1.208368730189212E9 ; 4.639348055266796E9 ; 1.1925631243790007E11 ; 0.0
108 ; 4.3772873125013016E7 ; 1.2084264894006643E9 ; 4.683151005989387E9 ; 1.2046468116808928E11 ; 0.0
109 ; 4.375008208566636E7 ; 1.2084841836381874E9 ; 4.7269238791144E9 ; 1.2167310765748994E11 ; 0.0
110 ; 4.3721158438863344E7 ; 1.2085418102325754E9 ; 4.770673961200067E9 ; 1.2288159184112813E11 ; 0.0
111 ; 4.369518960843827E7 ; 1.2085993665709708E9 ; 4.81439511963893E9 ; 1.240901336513607E11 ; 0.0
112 ; 4.367197861287838E7 ; 1.2086568500945625E9 ; 4.858090309247369E9 ; 1.2529873301793167E11 ; 0.0
113 ; 4.364068057967673E7 ; 1.208714258296397E9 ; 4.901762287860248E9 ; 1.2650738986802623E11 ; 0.0
114 ; 4.3615392574535534E7 ; 1.2087715887193022E9 ; 4.945402968439924E9 ; 1.2771610412632263E11 ; 0.0
115 ; 4.3591891282919645E7 ; 1.2088288389539125E9 ; 4.98901836101446E9 ; 1.2892487571504193E11 ; 0.0
116 ; 4.355923934890307E7 ; 1.2088860066367917E9 ; 5.0326102522973795E9 ; 1.3013370455399585E11 ; 0.0
117 ; 4.3531109442167625E7 ; 1.2089430894486496E9 ; 5.076169491646282E9 ; 1.3134259056063264E11 ; 0.0
118 ; 4.349454884086615E7 ; 1.2090000851126442E9 ; 5.1197006010884495E9 ; 1.325515336500813E11 ; 0.0
119 ; 4.346575323457872E7 ; 1.209056991392767E9 ; 5.163195149929316E9 ; 1.3376053373519394E11 ; 0.0
120 ; 4.344332032114504E7 ; 1.209113806092306E9 ; 5.206660903163895E9 ; 1.349695907265867E11 ; 0.0
121 ; 4.340470666675086E7 ; 1.209170527052384E9 ; 5.25010422348504E9 ; 1.36178704532679E11 ; 0.0
122 ; 4.3382127650117E7 ; 1.2092271521505637E9 ; 5.293508930151791E9 ; 1.3738787505973138E11 ; 0.0
123 ; 4.334025154015383E7 ; 1.2092836792995229E9 ; 5.336891057801908E9 ; 1.3859710221188196E11 ; 0.0
124 ; 4.3311745700273424E7 ; 1.2093401064457862E9 ; 5.380231309342061E9 ; 1.398063858911815E11 ; 0.0
125 ; 4.327240376100483E7 ; 1.209396431568525E9 ; 5.423543055042335E9 ; 1.410157259976273E11 ; 0.0
126 ; 4.324556952537881E7 ; 1.209452652678404E9 ; 5.466815458803339E9 ; 1.422251224291958E11 ; 0.0
127 ; 4.321186202515171E7 ; 1.2095087678164878E9 ; 5.510061028328718E9 ; 1.434345750818742E11 ; 0.0
128 ; 4.317987273427533E7 ; 1.2095647750531955E9 ; 5.553272890353869E9 ; 1.446440838496907E11 ; 0.0
129 ; 4.314546051393927E7 ; 1.2096206724873018E9 ; 5.596452763088144E9 ; 1.458536486247439E11 ; 0.0
130 ; 4.310107073409933E7 ; 1.2096764582449882E9 ; 5.639598223602083E9 ; 1.470632692972312E11 ; 0.0
131 ; 4.305214183142897E7 ; 1.209732130478931E9 ; 5.682699294336183E9 ; 1.482729457554762E11 ; 0.0
132 ; 4.300543623590015E7 ; 1.2097876873674355E9 ; 5.725751436167611E9 ; 1.4948267788595514E11 ; 0.0
133 ; 4.2959704543768406E7 ; 1.2098431271136072E9 ; 5.768756872403511E9 ; 1.5069246557332257E11 ; 0.0
134 ; 4.290102472793211E7 ; 1.2098984479445584E9 ; 5.811716576947279E9 ; 1.519023087004362E11 ; 0.0
135 ; 4.2859648029945284E7 ; 1.2099536481106534E9 ; 5.854617601675211E9 ; 1.5311220714838074E11 ; 0.0
136 ; 4.2806373171975605E7 ; 1.210008725884784E9 ; 5.897477249705156E9 ; 1.543221607964914E11 ; 0.0
137 ; 4.275504415425138E7 ; 1.2100636795616782E9 ; 5.940283622877131E9 ; 1.555321695223762E11 ; 0.0
138 ; 4.269800333898887E7 ; 1.2101185074572384E9 ; 5.983038667031383E9 ; 1.5674223320193787E11 ; 0.0
139 ; 4.265524006513551E7 ; 1.21017320790791E9 ; 6.025736670370372E9 ; 1.579523517093951E11 ; 0.0
140 ; 4.260045417787813E7 ; 1.2102277792700746E9 ; 6.068391910435508E9 ; 1.59162524917303E11 ; 0.0
141 ; 4.254462095989551E7 ; 1.2102822199194717E9 ; 6.110992364613386E9 ; 1.603727526965731E11 ; 0.0
142 ; 4.249007715328008E7 ; 1.210336528250644E9 ; 6.153536985573281E9 ; 1.6158303491649255E11 ; 0.0
143 ; 4.243488936430865E7 ; 1.2103907026764064E9 ; 6.196027062726562E9 ; 1.627933714447432E11 ; 0.0
144 ; 4.2383021609816104E7 ; 1.2104447416273377E9 ; 6.23846195209087E9 ; 1.640037621474196E11 ; 0.0
145 ; 4.234695561550853E7 ; 1.2104986435512946E9 ; 6.280844973700686E9 ; 1.6521420688904694E11 ; 0.0
146 ; 4.230705609225447E7 ; 1.210552406912944E9 ; 6.323191929316195E9 ; 1.6642470553259824E11 ; 0.0
147 ; 4.227006777584414E7 ; 1.210606030193317E9 ; 6.365498985408449E9 ; 1.6763525793951117E11 ; 0.0
148 ; 4.222753082682445E7 ; 1.21065951188938E9 ; 6.407769053184294E9 ; 1.688458639697045E11 ; 0.0
149 ; 4.219896029051739E7 ; 1.210712850513625E9 ; 6.449996584011118E9 ; 1.7005652348159387E11 ; 0.0
150 ; 4.216038373377107E7 ; 1.2107660445936747E9 ; 6.492195544301636E9 ; 1.7126723633210748E11 ; 0.0
151 ; 4.211767931679984E7 ; 1.2108190926719067E9 ; 6.534355928035407E9 ; 1.7247800237670117E11 ; 0.0
152 ; 4.208029417119306E7 ; 1.2108719933050904E9 ; 6.576473607352207E9 ; 1.7368882146937308E11 ; 0.0
153 ; 4.2041334953495234E7 ; 1.21092474506404E9 ; 6.6185539015234E9 ; 1.7489969346267816E11 ; 0.0
154 ; 4.2002615194562435E7 ; 1.2109773465332808E9 ; 6.660595236476895E9 ; 1.761106182077422E11 ; 0.0
155 ; 4.197136473808033E7 ; 1.211029796310732E9 ; 6.702597851671457E9 ; 1.7732159555427548E11 ; 0.0
156 ; 4.193123975349986E7 ; 1.211082093007396E9 ; 6.744569216409537E9 ; 1.785326253505862E11 ; 0.0
157 ; 4.1889473237244636E7 ; 1.2111342352470677E9 ; 6.786500456163037E9 ; 1.797437074435936E11 ; 0.0
158 ; 4.184365738196963E7 ; 1.211186221666049E9 ; 6.828389929400282E9 ; 1.8095484167884067E11 ; 0.0
159 ; 4.18015271522587E7 ; 1.2112380509128797E9 ; 6.870233586782251E9 ; 1.821660279005067E11 ; 0.0
160 ; 4.176425990834665E7 ; 1.2112897216480746E9 ; 6.91203511393451E9 ; 1.833772659514196E11 ; 0.0
161 ; 4.172456619908158E7 ; 1.2113412325438745E9 ; 6.953799373842857E9 ; 1.8458855567306766E11 ; 0.0
162 ; 4.167942818237398E7 ; 1.2113925822840056E9 ; 6.995523940041939E9 ; 1.8579989690561154E11 ; 0.0
163 ; 4.1641539472301975E7 ; 1.211443769563449E9 ; 7.037203368224313E9 ; 1.8701128948789554E11 ; 0.0
164 ; 4.160017788381986E7 ; 1.211494793088216E9 ; 7.078844907696615E9 ; 1.8822273325745898E11 ; 0.0
165 ; 4.155924606312198E7 ; 1.2115456515751393E9 ; 7.120445085580435E9 ; 1.894342280505472E11 ; 0.0
166 ; 4.1522345727716036E7 ; 1.2115963437516632E9 ; 7.162004331643557E9 ; 1.9064577370212234E11 ; 0.0
167 ; 4.1476014847101696E7 ; 1.2116468683556511E9 ; 7.203526677371273E9 ; 1.9185737004587402E11 ; 0.0
168 ; 4.1434399175321855E7 ; 1.211697224135192E9 ; 7.245002692218375E9 ; 1.9306901691422968E11 ; 0.0
169 ; 4.139436478294539E7 ; 1.211747409848421E9 ; 7.286437091393697E9 ; 1.9428071413836487E11 ; 0.0
170 ; 4.1349942435251646E7 ; 1.2117974242633438E9 ; 7.327831456176642E9 ; 1.954924615482133E11 ; 0.0
171 ; 4.130343244214093E7 ; 1.211847266157667E9 ; 7.369181398611894E9 ; 1.9670425897247662E11 ; 0.0
172 ; 4.127005267287695E7 ; 1.2118969343186383E9 ; 7.410484831054034E9 ; 1.9791610623863428E11 ; 0.0
173 ; 4.12256875595145E7 ; 1.2119464275428889E9 ; 7.451754883726912E9 ; 1.991280031729529E11 ; 0.0
174 ; 4.119626010017577E7 ; 1.2119957446362844E9 ; 7.492980571286426E9 ; 2.003399496004958E11 ; 0.0
175 ; 4.117778123985673E7 ; 1.2120448844137816E9 ; 7.534176831386601E9 ; 2.0155194534513208E11 ; 0.0
176 ; 4.115117821101554E7 ; 1.2120938456992884E9 ; 7.575354612626458E9 ; 2.0276399022954587E11 ; 0.0
177 ; 4.1121983228677146E7 ; 1.2121426273255312E9 ; 7.616505790837474E9 ; 2.0397608407524515E11 ; 0.0
178 ; 4.109601668136793E7 ; 1.2121912281339269E9 ; 7.657627774066151E9 ; 2.0518822670257068E11 ; 0.0
179 ; 4.107366561736134E7 ; 1.212239646974459E9 ; 7.698723790747519E9 ; 2.0640041793070462E11 ; 0.0
180 ; 4.10465783581333E7 ; 1.2122878827055588E9 ; 7.73979745636488E9 ; 2.0761265757767908E11 ; 0.0
181 ; 4.102326249443461E7 ; 1.2123359341939914E9 ; 7.780844034723013E9 ; 2.0882494546038464E11 ; 0.0
182 ; 4.099292307018545E7 ; 1.2123838003147454E9 ; 7.821867297217447E9 ; 2.1003728139457864E11 ; 0.0
183 ; 4.096820039385843E7 ; 1.2124314799509273E9 ; 7.862860220287633E9 ; 2.112496651948934E11 ; 0.0
184 ; 4.094707115540352E7 ; 1.2124789719936595E9 ; 7.903828420681492E9 ; 2.1246209667484433E11 ; 0.0
185 ; 4.091929648932283E7 ; 1.2125262753419824E9 ; 7.944775491836895E9 ; 2.1367457564683798E11 ; 0.0
186 ; 4.089034643387482E7 ; 1.212573388902759E9 ; 7.985694788326218E9 ; 2.1488710192217996E11 ; 0.0
187 ; 4.086948040747824E7 ; 1.2126203115905862E9 ; 8.026585134760093E9 ; 2.1609967531108273E11 ; 0.0
188 ; 4.08406403308605E7 ; 1.2126670423277054E9 ; 8.067454615167571E9 ; 2.173122956226733E11 ; 0.0
189 ; 4.081545972576703E7 ; 1.2127135800439188E9 ; 8.108295255498431E9 ; 2.18524962665001E11 ; 0.0
190 ; 4.0793174042108916E7 ; 1.212759923676509E9 ; 8.149110715224198E9 ; 2.1973767624504492E11 ; 0.0
191 ; 4.077009104153094E7 ; 1.2128060721701605E9 ; 8.189903889266307E9 ; 2.2095043616872144E11 ; 0.0
192 ; 4.073761967001206E7 ; 1.2128520244768848E9 ; 8.2306739803078375E9 ; 2.221632422408916E11 ; 0.0
193 ; 4.072133470547046E7 ; 1.2128977795559485E9 ; 8.27141159997785E9 ; 2.233760942653685E11 ; 0.0
194 ; 4.06937792889007E7 ; 1.2129433363738027E9 ; 8.31213293468332E9 ; 2.2458899204492444E11 ; 0.0
195 ; 4.066682629498588E7 ; 1.212988693904017E9 ; 8.35282671397222E9 ; 2.2580193538129825E11 ; 0.0
196 ; 4.064281271116215E7 ; 1.2130338511272154E9 ; 8.393493540267206E9 ; 2.2701492407520227E11 ; 0.0
197 ; 4.061840140350365E7 ; 1.2130788070310133E9 ; 8.434136352978369E9 ; 2.282279579263295E11 ; 0.0
