CSV File for the Network on Day 103
1 - Minute m 
2 - Power Consumed at minute m 
3 - Power Produced at minute m 
4 - Energy Consumed since the beginning of the day 
5 - Energy Produced since the beginning of the day 
6 - Energy Lost since the beginning of the day 
 
0 ; 3.879066338198732E7 ; 6.352578333691106E8 ; 0.0 ; 0.0 ; 0.0
1 ; 3.883575600974246E7 ; 6.36168730780225E8 ; 3.879066338198732E7 ; 6.352578333691106E8 ; 0.0
2 ; 3.887247823117911E7 ; 6.389330139764733E8 ; 7.762641939172977E7 ; 1.2714265641493356E9 ; 0.0
3 ; 3.892443858840645E7 ; 6.435506986040416E8 ; 1.1649889762290889E8 ; 1.910359578125809E9 ; 0.0
4 ; 3.898078116905978E7 ; 6.500217986759245E8 ; 1.5542333621131533E8 ; 2.553910276729851E9 ; 0.0
5 ; 3.9047468718354456E7 ; 6.583463264972584E8 ; 1.9440411738037512E8 ; 3.203932075405775E9 ; 0.0
6 ; 3.914261976017014E7 ; 6.685242925985532E8 ; 2.3345158609872958E8 ; 3.8622784019030333E9 ; 0.0
7 ; 3.9272910920012586E7 ; 6.805557056776532E8 ; 2.725942058588997E8 ; 4.530802694501587E9 ; 0.0
8 ; 3.9456692352492265E7 ; 6.944405725511761E8 ; 3.118671167789123E8 ; 5.21135840017924E9 ; 0.0
9 ; 3.9745162721399926E7 ; 7.101788981160526E8 ; 3.513238091314046E8 ; 5.905798972730416E9 ; 0.0
10 ; 4.017644988270548E7 ; 7.277706853216854E8 ; 3.910689718528045E8 ; 6.615977870846469E9 ; 0.0
11 ; 4.087018751081906E7 ; 7.472159351530899E8 ; 4.3124542173551E8 ; 7.343748556168155E9 ; 0.0
12 ; 4.197550976224546E7 ; 7.685146466252502E8 ; 4.7211560924632907E8 ; 8.090964491321244E9 ; 0.0
13 ; 4.304226950453925E7 ; 7.916668167887642E8 ; 5.1409111900857455E8 ; 8.859479137946495E9 ; 0.0
14 ; 4.316203640724878E7 ; 8.166724407467014E8 ; 5.571333885131137E8 ; 9.65114595473526E9 ; 0.0
15 ; 4.321815433750291E7 ; 8.435315116824435E8 ; 6.002954249203625E8 ; 1.0467818395481962E10 ; 0.0
16 ; 4.326653401936935E7 ; 8.722440208981467E8 ; 6.435135792578654E8 ; 1.1311349907164406E10 ; 0.0
17 ; 4.331301359933532E7 ; 9.028099578633008E8 ; 6.867801132772348E8 ; 1.2183593928062553E10 ; 0.0
18 ; 4.337156326865085E7 ; 9.352293102727695E8 ; 7.300931268765701E8 ; 1.3086403885925854E10 ; 0.0
19 ; 4.341857669147104E7 ; 9.695020641135583E8 ; 7.73464690145221E8 ; 1.4021633196198624E10 ; 0.0
20 ; 4.347537612340677E7 ; 1.0056282037394807E9 ; 8.168832668366921E8 ; 1.4991135260312181E10 ; 0.0
21 ; 4.352292252637166E7 ; 1.0436077119528121E9 ; 8.603586429600989E8 ; 1.5996763464051662E10 ; 0.0
22 ; 4.358363027157437E7 ; 1.083440570091967E9 ; 9.038815654864705E8 ; 1.7040371176004475E10 ; 0.0
23 ; 4.363073017665916E7 ; 1.1251267581242008E9 ; 9.474651957580448E8 ; 1.8123811746096443E10 ; 0.0
24 ; 4.368177700797001E7 ; 1.1686662547423139E9 ; 9.91095925934704E8 ; 1.9248938504220642E10 ; 0.0
25 ; 4.3734327570994526E7 ; 1.2061872828534558E9 ; 1.0347777029426739E9 ; 2.0417604758962955E10 ; 0.0
26 ; 4.378703536279488E7 ; 1.206211105902193E9 ; 1.0785120305136685E9 ; 2.162379204181641E10 ; 0.0
27 ; 4.38394491174451E7 ; 1.206236315122663E9 ; 1.1222990658764634E9 ; 2.2830003147718605E10 ; 0.0
28 ; 4.3878300010969505E7 ; 1.2062628851220646E9 ; 1.1661385149939084E9 ; 2.4036239462841267E10 ; 0.0
29 ; 4.3936739627228685E7 ; 1.2062907897422595E9 ; 1.2100168150048778E9 ; 2.5242502347963333E10 ; 0.0
30 ; 4.3986177488456145E7 ; 1.206320002160388E9 ; 1.2539535546321065E9 ; 2.6448793137705593E10 ; 0.0
31 ; 4.403220983452347E7 ; 1.2063504949872713E9 ; 1.2979397321205628E9 ; 2.7655113139865982E10 ; 0.0
32 ; 4.4079534622696646E7 ; 1.2063822403629627E9 ; 1.3419719419550862E9 ; 2.8861463634853252E10 ; 0.0
33 ; 4.413012509128016E7 ; 1.206415210048911E9 ; 1.3860514765777829E9 ; 3.0067845875216217E10 ; 0.0
34 ; 4.416655591280737E7 ; 1.206449375516273E9 ; 1.430181601669063E9 ; 3.127426108526513E10 ; 0.0
35 ; 4.4219548581351444E7 ; 1.2064847080299964E9 ; 1.4743481575818706E9 ; 3.2480710460781403E10 ; 0.0
36 ; 4.426134120829524E7 ; 1.206521178728375E9 ; 1.518567706163222E9 ; 3.3687195168811398E10 ; 0.0
37 ; 4.429957930702225E7 ; 1.2065587586978533E9 ; 1.5628290473715174E9 ; 3.489371634753977E10 ; 0.0
38 ; 4.43352115280744E7 ; 1.2065974190429294E9 ; 1.6071286266785398E9 ; 3.6100275106237625E10 ; 0.0
39 ; 4.4375174838859126E7 ; 1.2066371309510682E9 ; 1.6514638382066143E9 ; 3.7306872525280556E10 ; 0.0
40 ; 4.4410668638834275E7 ; 1.2066778657526011E9 ; 1.6958390130454733E9 ; 3.851350965623162E10 ; 0.0
41 ; 4.4442704611061335E7 ; 1.2067195949756358E9 ; 1.7402496816843076E9 ; 3.972018752198422E10 ; 0.0
42 ; 4.4475367251943305E7 ; 1.206762290396047E9 ; 1.784692386295369E9 ; 4.092690711695986E10 ; 0.0
43 ; 4.45075516397737E7 ; 1.2068059240826674E9 ; 1.8291677535473123E9 ; 4.213366940735591E10 ; 0.0
44 ; 4.453353983283451E7 ; 1.2068504684378145E9 ; 1.8736753051870859E9 ; 4.3340475331438576E10 ; 0.0
45 ; 4.457070972269626E7 ; 1.2068958962333379E9 ; 1.9182088450199203E9 ; 4.454732579987639E10 ; 0.0
46 ; 4.458827031399604E7 ; 1.206942180642375E9 ; 1.9627795547426167E9 ; 4.5754221696109726E10 ; 0.0
47 ; 4.460706125821065E7 ; 1.2069892952670317E9 ; 2.0073678250566127E9 ; 4.69611638767521E10 ; 0.0
48 ; 4.463081094998205E7 ; 1.2070372141622128E9 ; 2.0519748863148234E9 ; 4.816815317201913E10 ; 0.0
49 ; 4.465635415393056E7 ; 1.2070859118558326E9 ; 2.0966056972648053E9 ; 4.937519038618134E10 ; 0.0
50 ; 4.466933847017991E7 ; 1.2071353633656466E9 ; 2.141262051418736E9 ; 5.058227629803718E10 ; 0.0
51 ; 4.4683978151142836E7 ; 1.2071855442129395E9 ; 2.185931389888916E9 ; 5.1789411661402824E10 ; 0.0
52 ; 4.469687358195621E7 ; 1.2072364304333057E9 ; 2.230615368040059E9 ; 5.299659720561576E10 ; 0.0
53 ; 4.471621611962356E7 ; 1.2072879985847576E9 ; 2.2753122416220155E9 ; 5.4203833636049065E10 ; 0.0
54 ; 4.472586542843588E7 ; 1.2073402257533805E9 ; 2.320028457741639E9 ; 5.541112163463382E10 ; 0.0
55 ; 4.4745421491774164E7 ; 1.207393089556763E9 ; 2.364754323170075E9 ; 5.66184618603872E10 ; 0.0
56 ; 4.476235660128646E7 ; 1.2074465681453986E9 ; 2.409499744661849E9 ; 5.782585494994396E10 ; 0.0
57 ; 4.477471742168128E7 ; 1.207500640202272E9 ; 2.4542621012631354E9 ; 5.903330151808936E10 ; 0.0
58 ; 4.478867017092127E7 ; 1.207555284940805E9 ; 2.499036818684817E9 ; 6.024080215829163E10 ; 0.0
59 ; 4.4798796033626586E7 ; 1.2076104821013527E9 ; 2.543825488855738E9 ; 6.144835744323244E10 ; 0.0
60 ; 4.480949461725578E7 ; 1.2076662119464068E9 ; 2.5886242848893647E9 ; 6.2655967925333786E10 ; 0.0
61 ; 4.4822578248797834E7 ; 1.207722455254668E9 ; 2.6334337795066204E9 ; 6.386363413728019E10 ; 0.0
62 ; 4.4837893030780405E7 ; 1.2077791933141263E9 ; 2.6782563577554183E9 ; 6.507135659253486E10 ; 0.0
63 ; 4.484978224802305E7 ; 1.2078364079142892E9 ; 2.7230942507861986E9 ; 6.627913578584898E10 ; 0.0
64 ; 4.485680211920752E7 ; 1.207894081337676E9 ; 2.7679440330342216E9 ; 6.7486972193763275E10 ; 0.0
65 ; 4.4870630179684676E7 ; 1.207952196350693E9 ; 2.812800835153429E9 ; 6.869486627510095E10 ; 0.0
66 ; 4.487773663084999E7 ; 1.2080107361939907E9 ; 2.8576714653331137E9 ; 6.990281847145164E10 ; 0.0
67 ; 4.4889199938801385E7 ; 1.2080696845724025E9 ; 2.9025492019639635E9 ; 7.111082920764563E10 ; 0.0
68 ; 4.489901619928582E7 ; 1.2081290256445413E9 ; 2.947438401902765E9 ; 7.231889889221803E10 ; 0.0
69 ; 4.4904946980058946E7 ; 1.2081887440121374E9 ; 2.992337418102051E9 ; 7.352702791786258E10 ; 0.0
70 ; 4.491364690985151E7 ; 1.2082488247091885E9 ; 3.03724236508211E9 ; 7.473521666187471E10 ; 0.0
71 ; 4.492331137503491E7 ; 1.2083092531909719E9 ; 3.0821560119919615E9 ; 7.59434654865839E10 ; 0.0
72 ; 4.493298400890106E7 ; 1.2083700153229911E9 ; 3.1270793233669963E9 ; 7.715177473977487E10 ; 0.0
73 ; 4.493554540219449E7 ; 1.208431097369893E9 ; 3.1720123073758974E9 ; 7.836014475509787E10 ; 0.0
74 ; 4.494505876812348E7 ; 1.2084924859844015E9 ; 3.216947852778092E9 ; 7.956857585246776E10 ; 0.0
75 ; 4.495212761824303E7 ; 1.208554168196312E9 ; 3.2618929115462155E9 ; 8.077706833845216E10 ; 0.0
76 ; 4.495710755587336E7 ; 1.2086161314015715E9 ; 3.3068450391644588E9 ; 8.198562250664847E10 ; 0.0
77 ; 4.496688788222783E7 ; 1.2086783633514798E9 ; 3.351802146720332E9 ; 8.319423863805003E10 ; 0.0
78 ; 4.49576089454284E7 ; 1.208740852142031E9 ; 3.39676903460256E9 ; 8.440291700140152E10 ; 0.0
79 ; 4.4943193655113615E7 ; 1.2088035862034235E9 ; 3.4417266435479884E9 ; 8.561165785354355E10 ; 0.0
80 ; 4.49405682401655E7 ; 1.2088665542897494E9 ; 3.486669837203102E9 ; 8.682046143974698E10 ; 0.0
81 ; 4.4934256764828525E7 ; 1.208929745468885E9 ; 3.531610405443268E9 ; 8.802932799403673E10 ; 0.0
82 ; 4.492825332807369E7 ; 1.2089931491125882E9 ; 3.5765446622080965E9 ; 8.923825773950562E10 ; 0.0
83 ; 4.491591461233398E7 ; 1.209056754886819E9 ; 3.62147291553617E9 ; 9.044725088861821E10 ; 0.0
84 ; 4.490209639048397E7 ; 1.2091205527422855E9 ; 3.666388830148504E9 ; 9.165630764350504E10 ; 0.0
85 ; 4.489781586727357E7 ; 1.2091845329052284E9 ; 3.7112909265389876E9 ; 9.286542819624731E10 ; 0.0
86 ; 4.488417552911687E7 ; 1.209248685868439E9 ; 3.7561887424062614E9 ; 9.407461272915254E10 ; 0.0
87 ; 4.487580355212908E7 ; 1.2093130023825228E9 ; 3.801072917935378E9 ; 9.528386141502098E10 ; 0.0
88 ; 4.486853799182997E7 ; 1.2093774734474037E9 ; 3.8459487214875073E9 ; 9.64931744174035E10 ; 0.0
89 ; 4.485129995981203E7 ; 1.2094420903040724E9 ; 3.890817259479337E9 ; 9.77025518908509E10 ; 0.0
90 ; 4.483485729508059E7 ; 1.2095068444265776E9 ; 3.9356685594391494E9 ; 9.891199398115498E10 ; 0.0
91 ; 4.483254713622187E7 ; 1.209571727514258E9 ; 3.98050341673423E9 ; 1.0012150082558156E11 ; 0.0
92 ; 4.481584878739727E7 ; 1.2096367314842134E9 ; 4.025335963870452E9 ; 1.0133107255309581E11 ; 0.0
93 ; 4.4804739052281E7 ; 1.2097018484640129E9 ; 4.0701518126578493E9 ; 1.0254070928458002E11 ; 0.0
94 ; 4.479444106631917E7 ; 1.2097670707846324E9 ; 4.11495655171013E9 ; 1.0375041113304404E11 ; 0.0
95 ; 4.47807747967798E7 ; 1.2098323909736261E9 ; 4.159750992776449E9 ; 1.0496017820382867E11 ; 0.0
96 ; 4.476112198962465E7 ; 1.209897801748516E9 ; 4.204531767573229E9 ; 1.061700105948023E11 ; 0.0
97 ; 4.475097826325578E7 ; 1.2099632960104058E9 ; 4.2492928895628533E9 ; 1.0737990839655083E11 ; 0.0
98 ; 4.473354284867925E7 ; 1.2100288668378086E9 ; 4.294043867826109E9 ; 1.0858987169256123E11 ; 0.0
99 ; 4.472114396396203E7 ; 1.210094507480682E9 ; 4.338777410674788E9 ; 1.0979990055939905E11 ; 0.0
100 ; 4.470380894952461E7 ; 1.21016021135467E9 ; 4.38349855463875E9 ; 1.1100999506687973E11 ; 0.0
101 ; 4.468148548746968E7 ; 1.2102259720355432E9 ; 4.428202363588275E9 ; 1.122201552782344E11 ; 0.0
102 ; 4.467589645591248E7 ; 1.2102917832538316E9 ; 4.472883849075745E9 ; 1.1343038125026994E11 ; 0.0
103 ; 4.465221337713952E7 ; 1.2103576388896472E9 ; 4.517559745531657E9 ; 1.1464067303352377E11 ; 0.0
104 ; 4.463346331708573E7 ; 1.2104235329676871E9 ; 4.562211958908796E9 ; 1.1585103067241342E11 ; 0.0
105 ; 4.4615839085587725E7 ; 1.2104894596524158E9 ; 4.606845422225882E9 ; 1.170614542053811E11 ; 0.0
106 ; 4.460143556814786E7 ; 1.2105554132434163E9 ; 4.651461261311469E9 ; 1.1827194366503352E11 ; 0.0
107 ; 4.458060039817478E7 ; 1.2106213881709106E9 ; 4.696062696879617E9 ; 1.1948249907827695E11 ; 0.0
108 ; 4.456858474400279E7 ; 1.2106873789914384E9 ; 4.740643297277792E9 ; 1.2069312046644786E11 ; 0.0
109 ; 4.454898010675022E7 ; 1.2107533803836927E9 ; 4.785211882021794E9 ; 1.219038078454393E11 ; 0.0
110 ; 4.452139078597142E7 ; 1.210819387144504E9 ; 4.829760862128545E9 ; 1.23114561225823E11 ; 0.0
111 ; 4.450242756349705E7 ; 1.2108853941849735E9 ; 4.874282252914516E9 ; 1.243253806129675E11 ; 0.0
112 ; 4.448511420655814E7 ; 1.2109513965267413E9 ; 4.918784680478013E9 ; 1.2553626600715247E11 ; 0.0
113 ; 4.446227239296779E7 ; 1.211017389298394E9 ; 4.963269794684571E9 ; 1.2674721740367921E11 ; 0.0
114 ; 4.4445187662937544E7 ; 1.2110833677320018E9 ; 5.007732067077539E9 ; 1.2795823479297762E11 ; 0.0
115 ; 4.442126948654466E7 ; 1.2111493271597817E9 ; 5.052177254740477E9 ; 1.2916931816070961E11 ; 0.0
116 ; 4.439845809771683E7 ; 1.211215263010882E9 ; 5.096598524227021E9 ; 1.3038046748786938E11 ; 0.0
117 ; 4.4368869328271866E7 ; 1.2112811708082824E9 ; 5.1409969823247385E9 ; 1.3159168275088026E11 ; 0.0
118 ; 4.4355576558224745E7 ; 1.211347046165812E9 ; 5.18536585165301E9 ; 1.3280296392168855E11 ; 0.0
119 ; 4.4330406660334334E7 ; 1.2114128847852697E9 ; 5.229721428211235E9 ; 1.3401431096785437E11 ; 0.0
120 ; 4.431150838866451E7 ; 1.2114786824536548E9 ; 5.27405183487157E9 ; 1.3522572385263963E11 ; 0.0
121 ; 4.4286052967167385E7 ; 1.2115444350404944E9 ; 5.318363343260234E9 ; 1.3643720253509329E11 ; 0.0
122 ; 4.426726507292846E7 ; 1.211610138495272E9 ; 5.362649396227402E9 ; 1.376487469701338E11 ; 0.0
123 ; 4.424188171583463E7 ; 1.2116757888449464E9 ; 5.40691666130033E9 ; 1.3886035710862906E11 ; 0.0
124 ; 4.4212777357234895E7 ; 1.211741382191562E9 ; 5.451158543016165E9 ; 1.40072032897474E11 ; 0.0
125 ; 4.418516980203979E7 ; 1.211806914709947E9 ; 5.4953713203734E9 ; 1.4128377427966556E11 ; 0.0
126 ; 4.41647808249186E7 ; 1.2118723826454942E9 ; 5.53955649017544E9 ; 1.4249558119437552E11 ; 0.0
127 ; 4.413476425183266E7 ; 1.2119377823120198E9 ; 5.583721271000359E9 ; 1.4370745357702103E11 ; 0.0
128 ; 4.410944465345491E7 ; 1.212003110089705E9 ; 5.627856035252192E9 ; 1.4491939135933304E11 ; 0.0
129 ; 4.407879953629741E7 ; 1.2120683624231071E9 ; 5.671965479905646E9 ; 1.4613139446942273E11 ; 0.0
130 ; 4.405138293191014E7 ; 1.2121335358192441E9 ; 5.716044279441944E9 ; 1.4734346283184583E11 ; 0.0
131 ; 4.400534919706729E7 ; 1.2121986268457494E9 ; 5.760095662373855E9 ; 1.4855559636766507E11 ; 0.0
132 ; 4.3973547658955336E7 ; 1.212263632129091E9 ; 5.804101011570922E9 ; 1.4976779499451083E11 ; 0.0
133 ; 4.392364187792775E7 ; 1.2123285483528545E9 ; 5.848074559229877E9 ; 1.5098005862663992E11 ; 0.0
134 ; 4.3884843260639474E7 ; 1.21239337225609E9 ; 5.891998201107805E9 ; 1.5219238717499277E11 ; 0.0
135 ; 4.384180092291663E7 ; 1.212458100631715E9 ; 5.935883044368444E9 ; 1.5340478054724887E11 ; 0.0
136 ; 4.379616205682678E7 ; 1.2125227303249757E9 ; 5.979724845291361E9 ; 1.5461723864788058E11 ; 0.0
137 ; 4.376117916774888E7 ; 1.2125872582319636E9 ; 6.023521007348187E9 ; 1.5582976137820557E11 ; 0.0
138 ; 4.371351323889684E7 ; 1.212651681298184E9 ; 6.067282186515936E9 ; 1.5704234863643753E11 ; 0.0
139 ; 4.366803715042851E7 ; 1.2127159965171735E9 ; 6.110995699754832E9 ; 1.5825500031773572E11 ; 0.0
140 ; 4.362811556347251E7 ; 1.2127802009291701E9 ; 6.154663736905261E9 ; 1.594677163142529E11 ; 0.0
141 ; 4.357973700572933E7 ; 1.2128442916198273E9 ; 6.198291852468734E9 ; 1.6068049651518207E11 ; 0.0
142 ; 4.353702484132871E7 ; 1.2129082657189736E9 ; 6.241871589474463E9 ; 1.6189334080680188E11 ; 0.0
143 ; 4.348873508101031E7 ; 1.2129721203994164E9 ; 6.285408614315792E9 ; 1.6310624907252084E11 ; 0.0
144 ; 4.345185085243398E7 ; 1.213035852875788E9 ; 6.328897349396802E9 ; 1.6431922119292026E11 ; 0.0
145 ; 4.3421210234788656E7 ; 1.2130994604034295E9 ; 6.372349200249236E9 ; 1.6553225704579605E11 ; 0.0
146 ; 4.338763421513839E7 ; 1.2131629402773166E9 ; 6.415770410484025E9 ; 1.667453565061995E11 ; 0.0
147 ; 4.336165926739698E7 ; 1.2132262898310213E9 ; 6.459158044699163E9 ; 1.679585194464768E11 ; 0.0
148 ; 4.333043258800402E7 ; 1.2132895064357078E9 ; 6.50251970396656E9 ; 1.6917174573630783E11 ; 0.0
149 ; 4.329803767825592E7 ; 1.213352587499167E9 ; 6.545850136554564E9 ; 1.7038503524274353E11 ; 0.0
150 ; 4.3267410661361784E7 ; 1.2134155304648795E9 ; 6.5891481742328205E9 ; 1.715983878302427E11 ; 0.0
151 ; 4.324852726716167E7 ; 1.2134783328111153E9 ; 6.632415584894182E9 ; 1.7281180336070758E11 ; 0.0
152 ; 4.321519134156969E7 ; 1.2135409920500603E9 ; 6.675664112161344E9 ; 1.740252816935187E11 ; 0.0
153 ; 4.3187840958602585E7 ; 1.2136035057269764E9 ; 6.718879303502913E9 ; 1.7523882268556876E11 ; 0.0
154 ; 4.3154424038006E7 ; 1.2136658714193861E9 ; 6.762067144461516E9 ; 1.7645242619129575E11 ; 0.0
155 ; 4.312961619754282E7 ; 1.2137280867362888E9 ; 6.805221568499522E9 ; 1.7766609206271512E11 ; 0.0
156 ; 4.309550429848057E7 ; 1.2137901493174E9 ; 6.848351184697065E9 ; 1.7887982014945142E11 ; 0.0
157 ; 4.306976288159801E7 ; 1.2138520568324194E9 ; 6.891446688995546E9 ; 1.8009361029876883E11 ; 0.0
158 ; 4.3035590016939744E7 ; 1.2139138069803214E9 ; 6.934516451877145E9 ; 1.8130746235560126E11 ; 0.0
159 ; 4.300060712558488E7 ; 1.2139753974886696E9 ; 6.977552041894085E9 ; 1.8252137616258157E11 ; 0.0
160 ; 4.2964940708450675E7 ; 1.214036826112956E9 ; 7.02055264901967E9 ; 1.8373535156007025E11 ; 0.0
161 ; 4.294082214046344E7 ; 1.21409809063596E9 ; 7.06351758972812E9 ; 1.849493883861832E11 ; 0.0
162 ; 4.291468617962664E7 ; 1.2141591888671303E9 ; 7.106458411868584E9 ; 1.8616348647681915E11 ; 0.0
163 ; 4.2882178083200686E7 ; 1.214220118641986E9 ; 7.14937309804821E9 ; 1.8737764566568628E11 ; 0.0
164 ; 4.2845555659618005E7 ; 1.2142808778215384E9 ; 7.192255276131411E9 ; 1.8859186578432828E11 ; 0.0
165 ; 4.2816543584490776E7 ; 1.2143414642917337E9 ; 7.235100831791029E9 ; 1.898061466621498E11 ; 0.0
166 ; 4.2783724204766326E7 ; 1.2144018759629092E9 ; 7.27791737537552E9 ; 1.9102048812644156E11 ; 0.0
167 ; 4.2752856464172E7 ; 1.2144621107692714E9 ; 7.320701099580286E9 ; 1.9223489000240448E11 ; 0.0
168 ; 4.27248633418241E7 ; 1.2145221666683903E9 ; 7.363453956044458E9 ; 1.9344935211317374E11 ; 0.0
169 ; 4.269836411221345E7 ; 1.2145820416407099E9 ; 7.406178819386283E9 ; 1.9466387427984213E11 ; 0.0
170 ; 4.2654364636130065E7 ; 1.2146417336890738E9 ; 7.448877183498496E9 ; 1.9587845632148285E11 ; 0.0
171 ; 4.2624009417142384E7 ; 1.2147012408382683E9 ; 7.491531548134626E9 ; 1.9709309805517194E11 ; 0.0
172 ; 4.258585263932495E7 ; 1.2147605611345782E9 ; 7.534155557551768E9 ; 1.983077992960102E11 ; 0.0
173 ; 4.255793614921512E7 ; 1.2148196926453578E9 ; 7.576741410191093E9 ; 1.9952255985714478E11 ; 0.0
174 ; 4.254396682771123E7 ; 1.2148786334586155E9 ; 7.619299346340308E9 ; 2.0073737954979013E11 ; 0.0
175 ; 4.252259755867628E7 ; 1.214937381682613E9 ; 7.661843313168019E9 ; 2.0195225818324875E11 ; 0.0
176 ; 4.250153959739526E7 ; 1.2149959354454744E9 ; 7.704365910726696E9 ; 2.0316719556493137E11 ; 0.0
177 ; 4.249026771452069E7 ; 1.215054292894812E9 ; 7.746867450324091E9 ; 2.0438219150037683E11 ; 0.0
178 ; 4.246535351478741E7 ; 1.2151124521973603E9 ; 7.789357718038611E9 ; 2.0559724579327164E11 ; 0.0
179 ; 4.244567412820004E7 ; 1.2151704115386224E9 ; 7.831823071553399E9 ; 2.06812358245469E11 ; 0.0
180 ; 4.242491319969468E7 ; 1.21522816912253E9 ; 7.874268745681599E9 ; 2.0802752865700763E11 ; 0.0
181 ; 4.240206087624051E7 ; 1.215285723171111E9 ; 7.916693658881293E9 ; 2.0924275682613016E11 ; 0.0
182 ; 4.2386813613061406E7 ; 1.2153430719241698E9 ; 7.959095719757534E9 ; 2.1045804254930127E11 ; 0.0
183 ; 4.235904730055281E7 ; 1.215400213638976E9 ; 8.001482533370595E9 ; 2.1167338562122543E11 ; 0.0
184 ; 4.233923399917151E7 ; 1.2154571465899653E9 ; 8.043841580671147E9 ; 2.128887858348644E11 ; 0.0
185 ; 4.232094074174415E7 ; 1.2155138690684462E9 ; 8.086180814670319E9 ; 2.1410424298145438E11 ; 0.0
186 ; 4.230137386746494E7 ; 1.2155703793823197E9 ; 8.128501755412063E9 ; 2.1531975685052283E11 ; 0.0
187 ; 4.2279849269391455E7 ; 1.215626675855805E9 ; 8.170803129279528E9 ; 2.1653532722990515E11 ; 0.0
188 ; 4.225580712760779E7 ; 1.2156827568291748E9 ; 8.213082978548919E9 ; 2.1775095390576096E11 ; 0.0
189 ; 4.223921058999005E7 ; 1.2157386206584988E9 ; 8.255338785676526E9 ; 2.1896663666259012E11 ; 0.0
190 ; 4.2227303935888395E7 ; 1.215794265715395E9 ; 8.297577996266516E9 ; 2.2018237528324863E11 ; 0.0
191 ; 4.219761321526687E7 ; 1.2158496903867888E9 ; 8.339805300202404E9 ; 2.2139816954896402E11 ; 0.0
192 ; 4.2180185291764975E7 ; 1.21590489307468E9 ; 8.382002913417671E9 ; 2.226140192393508E11 ; 0.0
193 ; 4.216065311895356E7 ; 1.2159598721959152E9 ; 8.424183098709436E9 ; 2.2382992413242548E11 ; 0.0
194 ; 4.2137514516612664E7 ; 1.2160146261819696E9 ; 8.46634375182839E9 ; 2.250458840046214E11 ; 0.0
195 ; 4.2117873147599295E7 ; 1.216069153478734E9 ; 8.508481266345003E9 ; 2.2626189863080338E11 ; 0.0
196 ; 4.210545326235347E7 ; 1.2161234525463085E9 ; 8.550599139492602E9 ; 2.274779677842821E11 ; 0.0
