CSV File for the Network on Day 339
1 - Minute m 
2 - Power Consumed at minute m 
3 - Power Produced at minute m 
4 - Energy Consumed since the beginning of the day 
5 - Energy Produced since the beginning of the day 
6 - Energy Lost since the beginning of the day 
 
0 ; 3.869888686660083E7 ; 6.364353749280679E8 ; 0.0 ; 0.0 ; 0.0
1 ; 3.87445890093269E7 ; 6.37346149498825E8 ; 3.869888686660083E7 ; 6.364353749280679E8 ; 0.0
2 ; 3.878451221891001E7 ; 6.40110331910912E8 ; 7.744347587592772E7 ; 1.2737815244268928E9 ; 0.0
3 ; 3.8834847675003685E7 ; 6.447279348981335E8 ; 1.1622798809483773E8 ; 1.9138918563378048E9 ; 0.0
4 ; 3.88912554792379E7 ; 6.511989698293686E8 ; 1.550628357698414E8 ; 2.558619791235938E9 ; 0.0
5 ; 3.896069815051573E7 ; 6.595234466602371E8 ; 1.939540912490793E8 ; 3.2098187610653067E9 ; 0.0
6 ; 3.905155674547796E7 ; 6.697013738901557E8 ; 2.3291478939959502E8 ; 3.869342207725544E9 ; 0.0
7 ; 3.918195357938269E7 ; 6.817327585252259E8 ; 2.71966346145073E8 ; 4.5390435816157E9 ; 0.0
8 ; 3.937398708159057E7 ; 6.956176060473236E8 ; 3.111482997244557E8 ; 5.220776340140925E9 ; 0.0
9 ; 3.964694001437699E7 ; 7.113559203897161E8 ; 3.505222868060463E8 ; 5.916393946188249E9 ; 0.0
10 ; 4.008161514435103E7 ; 7.289477039194579E8 ; 3.901692268204233E8 ; 6.627749866577965E9 ; 0.0
11 ; 4.07761445103825E7 ; 7.483929574267533E8 ; 4.302508419647743E8 ; 7.356697570497423E9 ; 0.0
12 ; 4.1882991642588496E7 ; 7.696916801213979E8 ; 4.710269864751568E8 ; 8.105090527924176E9 ; 0.0
13 ; 4.294835609366476E7 ; 7.92843869636337E8 ; 5.129099781177453E8 ; 8.874782208045574E9 ; 0.0
14 ; 4.3079177763518065E7 ; 8.178495220383039E8 ; 5.5585833421141E8 ; 9.667626077681911E9 ; 0.0
15 ; 4.31290075050016E7 ; 8.447086318454223E8 ; 5.989375119749281E8 ; 1.0485475599720215E10 ; 0.0
16 ; 4.3173212371588305E7 ; 8.73421192051591E8 ; 6.420665194799297E8 ; 1.1330184231565638E10 ; 0.0
17 ; 4.322501040009979E7 ; 9.039871941573927E8 ; 6.85239731851518E8 ; 1.220360542361723E10 ; 0.0
18 ; 4.328340679203568E7 ; 9.364066282072084E8 ; 7.284647422516178E8 ; 1.3107592617774622E10 ; 0.0
19 ; 4.3330025570818365E7 ; 9.706794828321582E8 ; 7.717481490436535E8 ; 1.404399924598183E10 ; 0.0
20 ; 4.337478145172821E7 ; 1.0068057452984381E9 ; 8.150781746144719E8 ; 1.501467872881399E10 ; 0.0
21 ; 4.3427029013199195E7 ; 1.0447854015605792E9 ; 8.584529560662001E8 ; 1.6021484474112427E10 ; 0.0
22 ; 4.347968773580308E7 ; 1.084618436319118E9 ; 9.018799850793993E8 ; 1.7066269875673006E10 ; 0.0
23 ; 4.3528848026233345E7 ; 1.1263048330821395E9 ; 9.453596728152025E8 ; 1.8150888311992123E10 ; 0.0
24 ; 4.358514182596278E7 ; 1.1698445742301362E9 ; 9.888885208414358E8 ; 1.927719314507426E10 ; 0.0
25 ; 4.363213704744506E7 ; 1.2073658864727166E9 ; 1.0324736626673986E9 ; 2.0447037719304398E10 ; 0.0
26 ; 4.36940417800831E7 ; 1.2073900371397684E9 ; 1.0761057997148438E9 ; 2.1654403605777115E10 ; 0.0
27 ; 4.37464408852787E7 ; 1.2074156214022796E9 ; 1.119799841494927E9 ; 2.286179364291688E10 ; 0.0
28 ; 4.379063611967716E7 ; 1.2074426178254406E9 ; 1.1635462823802056E9 ; 2.406920926431916E10 ; 0.0
29 ; 4.383488128305107E7 ; 1.2074710042011178E9 ; 1.2073369184998827E9 ; 2.52766518821446E10 ; 0.0
30 ; 4.3889930009661935E7 ; 1.2075007576208837E9 ; 1.2511717997829337E9 ; 2.648412288634572E10 ; 0.0
31 ; 4.3929027090660416E7 ; 1.2075318545486004E9 ; 1.2950617297925956E9 ; 2.7691623643966602E10 ; 0.0
32 ; 4.397863499148032E7 ; 1.207564270892115E9 ; 1.338990756883256E9 ; 2.88991554985152E10 ; 0.0
33 ; 4.40255246404807E7 ; 1.2075979820736618E9 ; 1.3829693918747363E9 ; 3.010671976940732E10 ; 0.0
34 ; 4.40689111477609E7 ; 1.2076329630986075E9 ; 1.426994916515217E9 ; 3.131431775148098E10 ; 0.0
35 ; 4.4114578355014525E7 ; 1.2076691886222193E9 ; 1.471063827662978E9 ; 3.2521950714579586E10 ; 0.0
36 ; 4.415674892169759E7 ; 1.207706633014165E9 ; 1.5151784060179925E9 ; 3.3729619903201805E10 ; 0.0
37 ; 4.420005480851807E7 ; 1.2077452704205155E9 ; 1.55933515493969E9 ; 3.493732653621597E10 ; 0.0
38 ; 4.422874765715422E7 ; 1.207785074823039E9 ; 1.6035352097482083E9 ; 3.614507180663649E10 ; 0.0
39 ; 4.427350412092848E7 ; 1.2078260200956373E9 ; 1.6477639574053626E9 ; 3.7352856881459526E10 ; 0.0
40 ; 4.4303786683970794E7 ; 1.2078680800577865E9 ; 1.6920374615262911E9 ; 3.856068290155516E10 ; 0.0
41 ; 4.43377198891886E7 ; 1.20791122852491E9 ; 1.7363412482102618E9 ; 3.9768550981612946E10 ; 0.0
42 ; 4.436983760557068E7 ; 1.207955439355615E9 ; 1.7806789680994503E9 ; 4.0976462210137856E10 ; 0.0
43 ; 4.4400640122531004E7 ; 1.2080006864957767E9 ; 1.8250488057050211E9 ; 4.218441764949347E10 ; 0.0
44 ; 4.442553081636088E7 ; 1.2080469440194693E9 ; 1.869449445827552E9 ; 4.339241833598924E10 ; 0.0
45 ; 4.446429461636333E7 ; 1.208094186166769E9 ; 1.913874976643913E9 ; 4.460046528000871E10 ; 0.0
46 ; 4.4476508419909306E7 ; 1.208142387378481E9 ; 1.9583392712602763E9 ; 4.580855946617548E10 ; 0.0
47 ; 4.450073569674763E7 ; 1.2081915223278575E9 ; 2.0028157796801856E9 ; 4.701670185355396E10 ; 0.0
48 ; 4.4520414144542955E7 ; 1.2082415659493914E9 ; 2.047316515376933E9 ; 4.822489337588182E10 ; 0.0
49 ; 4.453958163305206E7 ; 1.2082924934647777E9 ; 2.091836929521476E9 ; 4.9433134941831215E10 ; 0.0
50 ; 4.455211087127801E7 ; 1.2083442804061608E9 ; 2.1363765111545281E9 ; 5.064142743529599E10 ; 0.0
51 ; 4.457107454310992E7 ; 1.2083969026367733E9 ; 2.180928622025806E9 ; 5.184977171570215E10 ; 0.0
52 ; 4.458786401411691E7 ; 1.2084503363691025E9 ; 2.225499696568916E9 ; 5.305816861833892E10 ; 0.0
53 ; 4.461056912536497E7 ; 1.2085045581807013E9 ; 2.2700875605830326E9 ; 5.426661895470802E10 ; 0.0
54 ; 4.461509189185475E7 ; 1.208559545027783E9 ; 2.3146981297083974E9 ; 5.5475123512888725E10 ; 0.0
55 ; 4.4633247087896116E7 ; 1.2086152742567298E9 ; 2.359313221600252E9 ; 5.668368305791651E10 ; 0.0
56 ; 4.46478632084674E7 ; 1.2086717236136491E9 ; 2.4039464686881485E9 ; 5.789229833217324E10 ; 0.0
57 ; 4.465529509471287E7 ; 1.2087288712521067E9 ; 2.448594331896616E9 ; 5.910097005578689E10 ; 0.0
58 ; 4.46620002192869E7 ; 1.2087866957391686E9 ; 2.4932496269913287E9 ; 6.0309698927038994E10 ; 0.0
59 ; 4.467702099731417E7 ; 1.2088451760598807E9 ; 2.5379116272106156E9 ; 6.151848562277816E10 ; 0.0
60 ; 4.469276880870115E7 ; 1.2089042916203012E9 ; 2.5825886482079296E9 ; 6.272733079883804E10 ; 0.0
61 ; 4.470732502502866E7 ; 1.2089640222492142E9 ; 2.6272814170166306E9 ; 6.393623509045834E10 ; 0.0
62 ; 4.470965604112956E7 ; 1.2090243481986277E9 ; 2.6719887420416594E9 ; 6.514519911270756E10 ; 0.0
63 ; 4.472791460280934E7 ; 1.209085250143178E9 ; 2.716698398082789E9 ; 6.635422346090619E10 ; 0.0
64 ; 4.4731893394307E7 ; 1.2091467091785278E9 ; 2.7614263126855984E9 ; 6.756330871104937E10 ; 0.0
65 ; 4.4741045042912066E7 ; 1.209208706818872E9 ; 2.8061582060799055E9 ; 6.87724554202279E10 ; 0.0
66 ; 4.4754353055518515E7 ; 1.2092712249936295E9 ; 2.8508992511228175E9 ; 6.998166412704678E10 ; 0.0
67 ; 4.475588024743666E7 ; 1.209334246043421E9 ; 2.895653604178336E9 ; 7.11909353520404E10 ; 0.0
68 ; 4.477012878401092E7 ; 1.209397752715402E9 ; 2.9404094844257727E9 ; 7.240026959808383E10 ; 0.0
69 ; 4.478317697770636E7 ; 1.209461728158036E9 ; 2.9851796132097836E9 ; 7.360966735079924E10 ; 0.0
70 ; 4.477720549126065E7 ; 1.2095261559153757E9 ; 3.02996279018749E9 ; 7.481912907895728E10 ; 0.0
71 ; 4.479386641296034E7 ; 1.2095910199209137E9 ; 3.0747399956787505E9 ; 7.602865523487265E10 ; 0.0
72 ; 4.480287978626354E7 ; 1.209656304491073E9 ; 3.119533862091711E9 ; 7.723824625479356E10 ; 0.0
73 ; 4.480924733688071E7 ; 1.2097219943183799E9 ; 3.1643367418779745E9 ; 7.844790255928464E10 ; 0.0
74 ; 4.480812492652499E7 ; 1.209788074464385E9 ; 3.209145989214855E9 ; 7.965762455360301E10 ; 0.0
75 ; 4.481671611087716E7 ; 1.209854530352368E9 ; 3.2539541141413803E9 ; 8.08674126280674E10 ; 0.0
76 ; 4.482273887977666E7 ; 1.2099213477598755E9 ; 3.2987708302522573E9 ; 8.207726715841977E10 ; 0.0
77 ; 4.483121991097821E7 ; 1.2099885128111274E9 ; 3.343593569132034E9 ; 8.328718850617964E10 ; 0.0
78 ; 4.481667383589721E7 ; 1.2100560119693313E9 ; 3.388424789043012E9 ; 8.449717701899077E10 ; 0.0
79 ; 4.480717496616037E7 ; 1.2101238320289347E9 ; 3.433241462878909E9 ; 8.57072330309601E10 ; 0.0
80 ; 4.4797846529710054E7 ; 1.210191960107842E9 ; 3.4780486378450694E9 ; 8.691735686298903E10 ; 0.0
81 ; 4.4793986444481224E7 ; 1.2102603836396267E9 ; 3.5228464843747797E9 ; 8.812754882309688E10 ; 0.0
82 ; 4.478431237149537E7 ; 1.210329090365759E9 ; 3.567640470819261E9 ; 8.933780920673651E10 ; 0.0
83 ; 4.4774041079758234E7 ; 1.2103980683278701E9 ; 3.6124247831907563E9 ; 9.054813829710226E10 ; 0.0
84 ; 4.47664587220324E7 ; 1.2104673058600743E9 ; 3.6571988242705145E9 ; 9.175853636543013E10 ; 0.0
85 ; 4.475096400063305E7 ; 1.2105367915813584E9 ; 3.701965282992547E9 ; 9.29690036712902E10 ; 0.0
86 ; 4.4741355538207434E7 ; 1.2106065143880618E9 ; 3.7467162469931803E9 ; 9.417954046287157E10 ; 0.0
87 ; 4.4729338979318075E7 ; 1.2106764634464514E9 ; 3.791457602531388E9 ; 9.539014697725963E10 ; 0.0
88 ; 4.47167522101104E7 ; 1.210746628185408E9 ; 3.836186941510706E9 ; 9.660082344070609E10 ; 0.0
89 ; 4.4701055408356704E7 ; 1.2108169982892294E9 ; 3.880903693720816E9 ; 9.78115700688915E10 ; 0.0
90 ; 4.468621062550825E7 ; 1.2108875636905608E9 ; 3.925604749129173E9 ; 9.902238706718073E10 ; 0.0
91 ; 4.467440776428178E7 ; 1.210958314563456E9 ; 3.970290959754681E9 ; 1.0023327463087129E11 ; 0.0
92 ; 4.466061597619807E7 ; 1.2110292413165808E9 ; 4.014965367518963E9 ; 1.0144423294543475E11 ; 0.0
93 ; 4.4659055494243E7 ; 1.2111003345865536E9 ; 4.059625983495161E9 ; 1.0265526218675133E11 ; 0.0
94 ; 4.463765353720304E7 ; 1.211171585231435E9 ; 4.104285038989404E9 ; 1.0386636252133788E11 ; 0.0
95 ; 4.4623792890402764E7 ; 1.211242984324367E9 ; 4.148922692526607E9 ; 1.050775341065693E11 ; 0.0
96 ; 4.4600079451360844E7 ; 1.2113145231473584E9 ; 4.19354648541701E9 ; 1.0628877709089368E11 ; 0.0
97 ; 4.459361968785144E7 ; 1.211386193185227E9 ; 4.2381465648683705E9 ; 1.0750009161404103E11 ; 0.0
98 ; 4.4574106490547605E7 ; 1.2114579861196868E9 ; 4.282740184556222E9 ; 1.0871147780722626E11 ; 0.0
99 ; 4.455622395802918E7 ; 1.2115298938235965E9 ; 4.327314291046769E9 ; 1.0992293579334595E11 ; 0.0
100 ; 4.4535463156651594E7 ; 1.21160190835535E9 ; 4.371870515004798E9 ; 1.1113446568716954E11 ; 0.0
101 ; 4.452462002827934E7 ; 1.2116740219534233E9 ; 4.416405978161449E9 ; 1.1234606759552489E11 ; 0.0
102 ; 4.450600645432253E7 ; 1.2117462270310707E9 ; 4.460930598189729E9 ; 1.1355774161747832E11 ; 0.0
103 ; 4.448436534544795E7 ; 1.2118185161711648E9 ; 4.505436604644052E9 ; 1.1476948784450938E11 ; 0.0
104 ; 4.4468500610819966E7 ; 1.2118908821211865E9 ; 4.549920969989499E9 ; 1.1598130636068054E11 ; 0.0
105 ; 4.444731961043239E7 ; 1.2119633177883582E9 ; 4.594389470600319E9 ; 1.1719319724280173E11 ; 0.0
106 ; 4.443254908292848E7 ; 1.2120358162349148E9 ; 4.638836790210752E9 ; 1.1840516056059009E11 ; 0.0
107 ; 4.440879941477211E7 ; 1.212108370673519E9 ; 4.68326933929368E9 ; 1.19617196376825E11 ; 0.0
108 ; 4.439058086913583E7 ; 1.2121809744628088E9 ; 4.727678138708452E9 ; 1.2082930474749852E11 ; 0.0
109 ; 4.437071579080257E7 ; 1.212253621103082E9 ; 4.772068719577588E9 ; 1.2204148572196133E11 ; 0.0
110 ; 4.435029964389795E7 ; 1.2123263042321074E9 ; 4.816439435368391E9 ; 1.2325373934306442E11 ; 0.0
111 ; 4.4331760342214696E7 ; 1.2123990176210685E9 ; 4.860789735012289E9 ; 1.2446606564729652E11 ; 0.0
112 ; 4.430962708047876E7 ; 1.212471755170628E9 ; 4.905121495354504E9 ; 1.2567846466491759E11 ; 0.0
113 ; 4.428484931769218E7 ; 1.2125445109071167E9 ; 4.949431122434982E9 ; 1.2689093642008821E11 ; 0.0
114 ; 4.426101322756001E7 ; 1.2126172789788408E9 ; 4.993715971752674E9 ; 1.2810348093099533E11 ; 0.0
115 ; 4.423858449589041E7 ; 1.2126900536525042E9 ; 5.037976984980234E9 ; 1.2931609820997417E11 ; 0.0
116 ; 4.42247195295138E7 ; 1.212762829309743E9 ; 5.082215569476125E9 ; 1.3052878826362668E11 ; 0.0
117 ; 4.419394795978755E7 ; 1.2128356004437718E9 ; 5.126440289005638E9 ; 1.3174155109293642E11 ; 0.0
118 ; 4.416993039629887E7 ; 1.2129083616561353E9 ; 5.1706342369654255E9 ; 1.3295438669338019E11 ; 0.0
119 ; 4.414105172449828E7 ; 1.212981107653563E9 ; 5.214804167361724E9 ; 1.3416729505503632E11 ; 0.0
120 ; 4.412067977106375E7 ; 1.2130538332449253E9 ; 5.258945219086223E9 ; 1.3538027616268988E11 ; 0.0
121 ; 4.409783117713258E7 ; 1.2131265333382874E9 ; 5.303065898857286E9 ; 1.365933299959348E11 ; 0.0
122 ; 4.406808635070938E7 ; 1.2131992029380572E9 ; 5.347163730034419E9 ; 1.3780645652927307E11 ; 0.0
123 ; 4.40431569214593E7 ; 1.2132718371422265E9 ; 5.391231816385128E9 ; 1.3901965573221112E11 ; 0.0
124 ; 4.402062267061117E7 ; 1.213344431139701E9 ; 5.435274973306587E9 ; 1.4023292756935333E11 ; 0.0
125 ; 4.398818791434832E7 ; 1.2134169802077143E9 ; 5.479295595977199E9 ; 1.4144627200049304E11 ; 0.0
126 ; 4.396444667692654E7 ; 1.2134894797093306E9 ; 5.523283783891547E9 ; 1.4265968898070074E11 ; 0.0
127 ; 4.393941779894172E7 ; 1.2135619250910249E9 ; 5.567248230568474E9 ; 1.4387317846041006E11 ; 0.0
128 ; 4.3905877432606995E7 ; 1.2136343118803408E9 ; 5.611187648367415E9 ; 1.450867403855011E11 ; 0.0
129 ; 4.388099268634398E7 ; 1.21370663568363E9 ; 5.655093525800022E9 ; 1.4630037469738144E11 ; 0.0
130 ; 4.384217735928635E7 ; 1.2137788921838584E9 ; 5.698974518486366E9 ; 1.4751408133306506E11 ; 0.0
131 ; 4.3803072637655474E7 ; 1.2138510771384897E9 ; 5.742816695845653E9 ; 1.4872786022524893E11 ; 0.0
132 ; 4.3760870883893326E7 ; 1.2139231863774328E9 ; 5.786619768483308E9 ; 1.4994171130238742E11 ; 0.0
133 ; 4.372177179053882E7 ; 1.2139952158010614E9 ; 5.830380639367201E9 ; 1.5115563448876486E11 ; 0.0
134 ; 4.3677789428038925E7 ; 1.2140671613782923E9 ; 5.87410241115774E9 ; 1.5236962970456592E11 ; 0.0
135 ; 4.363160004983877E7 ; 1.214139019144731E9 ; 5.917780200585778E9 ; 1.535836968659442E11 ; 0.0
136 ; 4.358406324572669E7 ; 1.2142107852008765E9 ; 5.961411800635617E9 ; 1.5479783588508896E11 ; 0.0
137 ; 4.353970826804217E7 ; 1.214282455710381E9 ; 6.004995863881344E9 ; 1.5601204667028983E11 ; 0.0
138 ; 4.349987735220286E7 ; 1.2143540268983722E9 ; 6.048535572149386E9 ; 1.572263291260002E11 ; 0.0
139 ; 4.345266560690775E7 ; 1.214425495049825E9 ; 6.092035449501589E9 ; 1.584406831528986E11 ; 0.0
140 ; 4.340904765245069E7 ; 1.214496856507989E9 ; 6.135488115108497E9 ; 1.5965510864794843E11 ; 0.0
141 ; 4.336093259339037E7 ; 1.2145681076728659E9 ; 6.178897162760947E9 ; 1.6086960550445642E11 ; 0.0
142 ; 4.331353210049256E7 ; 1.2146392449997346E9 ; 6.222258095354338E9 ; 1.6208417361212927E11 ; 0.0
143 ; 4.326477757780907E7 ; 1.2147102649977293E9 ; 6.26557162745483E9 ; 1.63298812857129E11 ; 0.0
144 ; 4.321709676431401E7 ; 1.214781164228457E9 ; 6.3088364050326395E9 ; 1.6451352312212674E11 ; 0.0
145 ; 4.3189843260822296E7 ; 1.2148519393046625E9 ; 6.352053501796953E9 ; 1.657283042863552E11 ; 0.0
146 ; 4.3162280645795375E7 ; 1.2149225868889391E9 ; 6.3952433450577755E9 ; 1.6694315622565985E11 ; 0.0
147 ; 4.312883410276884E7 ; 1.2149931036924763E9 ; 6.438405625703571E9 ; 1.681580788125488E11 ; 0.0
148 ; 4.309710970401151E7 ; 1.2150634864738498E9 ; 6.48153445980634E9 ; 1.6937307191624127E11 ; 0.0
149 ; 4.307239147886224E7 ; 1.215133732037851E9 ; 6.524631569510352E9 ; 1.7058813540271512E11 ; 0.0
150 ; 4.303901194940129E7 ; 1.2152038372343526E9 ; 6.567703960989214E9 ; 1.7180326913475296E11 ; 0.0
151 ; 4.301182265896593E7 ; 1.2152737989572115E9 ; 6.610742972938615E9 ; 1.730184729719873E11 ; 0.0
152 ; 4.298086339887561E7 ; 1.2153436141432056E9 ; 6.653754795597581E9 ; 1.7423374677094452E11 ; 0.0
153 ; 4.2945504112011865E7 ; 1.2154132797710059E9 ; 6.696735658996456E9 ; 1.7544909038508774E11 ; 0.0
154 ; 4.291786279524781E7 ; 1.2154827928601809E9 ; 6.739681163108468E9 ; 1.7666450366485873E11 ; 0.0
155 ; 4.287788175307013E7 ; 1.2155521504702308E9 ; 6.782599025903716E9 ; 1.778799864577189E11 ; 0.0
156 ; 4.284897855269999E7 ; 1.215621349699656E9 ; 6.825476907656786E9 ; 1.7909553860818915E11 ; 0.0
157 ; 4.281522716653942E7 ; 1.215690387685051E9 ; 6.868325886209486E9 ; 1.803111599578888E11 ; 0.0
158 ; 4.27848842216768E7 ; 1.2157592616002288E9 ; 6.911141113376025E9 ; 1.8152685034557385E11 ; 0.0
159 ; 4.274945257987839E7 ; 1.215827968655375E9 ; 6.953925997597702E9 ; 1.8274260960717407E11 ; 0.0
160 ; 4.271405251198821E7 ; 1.2158965060962238E9 ; 6.996675450177581E9 ; 1.8395843757582944E11 ; 0.0
161 ; 4.268721638626532E7 ; 1.2159648712032638E9 ; 7.039389502689569E9 ; 1.8517433408192566E11 ; 0.0
162 ; 4.265063585184581E7 ; 1.2160330612909672E9 ; 7.082076719075835E9 ; 1.8639029895312894E11 ; 0.0
163 ; 4.262229425606073E7 ; 1.2161010737070425E9 ; 7.124727354927681E9 ; 1.876063320144199E11 ; 0.0
164 ; 4.2590344918319985E7 ; 1.216168905831712E9 ; 7.167349649183742E9 ; 1.8882243308812692E11 ; 0.0
165 ; 4.2558535017190754E7 ; 1.2162365550770102E9 ; 7.209939994102061E9 ; 1.9003860199395865E11 ; 0.0
166 ; 4.2515736682000235E7 ; 1.2163040188861055E9 ; 7.252498529119252E9 ; 1.9125483854903564E11 ; 0.0
167 ; 4.2490384194320425E7 ; 1.2163712947326415E9 ; 7.295014265801252E9 ; 1.9247114256792175E11 ; 0.0
168 ; 4.245494362532611E7 ; 1.216438380120099E9 ; 7.337504649995573E9 ; 1.936875138626544E11 ; 0.0
169 ; 4.241606261426367E7 ; 1.2165052725811803E9 ; 7.379959593620899E9 ; 1.9490395224277448E11 ; 0.0
170 ; 4.2375581132915676E7 ; 1.2165719696772063E9 ; 7.422375656235163E9 ; 1.9612045751535565E11 ; 0.0
171 ; 4.2352460045168E7 ; 1.2166384689975395E9 ; 7.464751237368078E9 ; 1.9733702948503287E11 ; 0.0
172 ; 4.232286103130316E7 ; 1.2167047681590192E9 ; 7.507103697413246E9 ; 1.985536679540304E11 ; 0.0
173 ; 4.227945234423874E7 ; 1.2167708648054166E9 ; 7.54942655844455E9 ; 1.9977037272218942E11 ; 0.0
174 ; 4.2264036285064414E7 ; 1.216836756606906E9 ; 7.591706010788788E9 ; 2.0098714358699484E11 ; 0.0
175 ; 4.224327549052594E7 ; 1.216902441259551E9 ; 7.633970047073853E9 ; 2.0220398034360175E11 ; 0.0
176 ; 4.222068777615057E7 ; 1.2169679164848092E9 ; 7.676213322564379E9 ; 2.034208827848613E11 ; 0.0
177 ; 4.219920663351834E7 ; 1.217033180029048E9 ; 7.718434010340529E9 ; 2.046378507013461E11 ; 0.0
178 ; 4.218251036780062E7 ; 1.217098229663078E9 ; 7.760633216974048E9 ; 2.0585488388137515E11 ; 0.0
179 ; 4.215695856628841E7 ; 1.2171630631816995E9 ; 7.802815727341848E9 ; 2.0707198211103824E11 ; 0.0
180 ; 4.213255687861716E7 ; 1.217227678403263E9 ; 7.844972685908136E9 ; 2.0828914517421994E11 ; 0.0
181 ; 4.211527427683213E7 ; 1.2172920731692421E9 ; 7.887105242786754E9 ; 2.095063728526232E11 ; 0.0
182 ; 4.2097852624327295E7 ; 1.2173562453438199E9 ; 7.929220517063586E9 ; 2.1072366492579245E11 ; 0.0
183 ; 4.207382507393545E7 ; 1.2174201928134873E9 ; 7.971318369687914E9 ; 2.1194102117113626E11 ; 0.0
184 ; 4.205354514938526E7 ; 1.2174839134866548E9 ; 8.013392194761849E9 ; 2.1315844136394974E11 ; 0.0
185 ; 4.2035415947414756E7 ; 1.2175474052932734E9 ; 8.055445739911235E9 ; 2.143759252774364E11 ; 0.0
186 ; 4.2009368321460664E7 ; 1.2176106661844692E9 ; 8.097481155858649E9 ; 2.1559347268272968E11 ; 0.0
187 ; 4.1988376022658E7 ; 1.2176736941321862E9 ; 8.13949052418011E9 ; 2.1681108334891415E11 ; 0.0
188 ; 4.1965680751132E7 ; 1.217736487128843E9 ; 8.181478900202768E9 ; 2.1802875704304633E11 ; 0.0
189 ; 4.19417619859606E7 ; 1.2177990431869974E9 ; 8.2234445809539E9 ; 2.1924649353017517E11 ; 0.0
190 ; 4.19254857772286E7 ; 1.21786136033902E9 ; 8.265386342939861E9 ; 2.2046429257336218E11 ; 0.0
191 ; 4.1901606662249334E7 ; 1.2179234366367807E9 ; 8.30731182871709E9 ; 2.216821539337012E11 ; 0.0
192 ; 4.188249123774955E7 ; 1.2179852701513412E9 ; 8.349213435379339E9 ; 2.2290007737033798E11 ; 0.0
193 ; 4.186530211893372E7 ; 1.218046858972659E9 ; 8.391095926617088E9 ; 2.2411806264048932E11 ; 0.0
194 ; 4.183729742524184E7 ; 1.2181082012092986E9 ; 8.432961228736022E9 ; 2.2533610949946198E11 ; 0.0
195 ; 4.181904436969145E7 ; 1.2181692949881496E9 ; 8.474798526161263E9 ; 2.2655421770067126E11 ; 0.0
196 ; 4.180044387267646E7 ; 1.2182301384541583E9 ; 8.516617570530955E9 ; 2.2777238699565942E11 ; 0.0
197 ; 4.178192912337281E7 ; 1.2182907297700605E9 ; 8.558418014403632E9 ; 2.289906171341136E11 ; 0.0
