CSV File for the Network on Day 203
1 - Minute m 
2 - Power Consumed at minute m 
3 - Power Produced at minute m 
4 - Energy Consumed since the beginning of the day 
5 - Energy Produced since the beginning of the day 
6 - Energy Lost since the beginning of the day 
 
0 ; 552074.3823818318 ; 2.1076776146713635E8 ; 0.0 ; 0.0 ; 0.0
1 ; 556896.2322910446 ; 2.110730860335001E8 ; 552074.3823818318 ; 2.1076776146713635E8 ; 356.14
2 ; 560870.9340091483 ; 2.119960218229703E8 ; 1108970.6146728764 ; 4.2184084750063646E8 ; 712.28
3 ; 565610.8350798658 ; 2.135365757916331E8 ; 1669841.5486820247 ; 6.338368693236067E8 ; 1068.42
4 ; 569145.3515793554 ; 2.1569475427733538E8 ; 2235452.38376189 ; 8.473734451152399E8 ; 1424.56
5 ; 575101.4589229936 ; 2.184705629312406E8 ; 2804597.735341246 ; 1.0630681993925753E9 ; 1780.6999999999998
6 ; 581698.9722040766 ; 2.2186400665432695E8 ; 3379699.1942642396 ; 1.2815387623238158E9 ; 2136.8399999999997
7 ; 586571.0905099863 ; 2.2587508954041025E8 ; 3961398.166468316 ; 1.5034027689781427E9 ; 2492.9799999999996
8 ; 588277.0193998364 ; 2.305038148271816E8 ; 4547969.256978302 ; 1.729277858518553E9 ; 2849.1199999999994
9 ; 593428.4004109849 ; 2.3575018485659638E8 ; 5136246.276378139 ; 1.9597816733457346E9 ; 3205.2599999999993
10 ; 596689.0807498368 ; 2.416142010457299E8 ; 5729674.676789124 ; 2.195531858202331E9 ; 3561.399999999999
11 ; 598527.2424010369 ; 2.480958638689421E8 ; 6326363.75753896 ; 2.437146059248061E9 ; 3917.539999999999
12 ; 603924.4843046705 ; 2.55195172851873E8 ; 6924890.999939997 ; 2.6852419231170034E9 ; 4273.679999999999
13 ; 608199.539571074 ; 2.6291212657744727E8 ; 7528815.484244667 ; 2.9404370959688764E9 ; 4629.82
14 ; 611480.1951202726 ; 2.712467227037097E8 ; 8137015.023815741 ; 3.203349222546324E9 ; 4985.96
15 ; 614210.4503495727 ; 2.80198957992969E8 ; 8748495.218936013 ; 3.4745959452500334E9 ; 5342.1
16 ; 620019.303200123 ; 2.897688283514095E8 ; 9362705.669285586 ; 3.7547949032430024E9 ; 5698.240000000001
17 ; 622017.7928525659 ; 2.999563288780529E8 ; 9982724.97248571 ; 4.044563731594412E9 ; 6054.380000000001
18 ; 625526.5154980401 ; 3.1076145392173576E8 ; 1.0604742765338276E7 ; 4.344520060472465E9 ; 6410.520000000001
19 ; 629336.9643485864 ; 3.2218419714461124E8 ; 1.1230269280836316E7 ; 4.6552815143942E9 ; 6766.660000000002
20 ; 632919.9935436379 ; 3.342245515905931E8 ; 1.1859606245184902E7 ; 4.977465711538812E9 ; 7122.800000000002
21 ; 637693.4259875495 ; 3.46882509757141E8 ; 1.249252623872854E7 ; 5.311690263129405E9 ; 7478.940000000002
22 ; 641271.3437093563 ; 3.60158063668821E8 ; 1.313021966471609E7 ; 5.658572772886546E9 ; 7835.080000000003
23 ; 645947.8420424385 ; 3.740512049511686E8 ; 1.3771491008425446E7 ; 6.018730836555367E9 ; 8191.220000000003
24 ; 651636.728143167 ; 3.885619249035156E8 ; 1.4417438850467885E7 ; 6.3927820415065365E9 ; 8547.360000000002
25 ; 654774.4459899913 ; 4.010662963659748E8 ; 1.5069075578611052E7 ; 6.781343966410052E9 ; 8903.500000000002
26 ; 657812.4193045917 ; 4.010714058606515E8 ; 1.5723850024601042E7 ; 7.182410262776027E9 ; 9259.640000000001
27 ; 659563.7242778403 ; 4.0107678270487934E8 ; 1.6381662443905635E7 ; 7.583481668636679E9 ; 9615.78
28 ; 665176.6087937327 ; 4.0108241756360334E8 ; 1.7041226168183476E7 ; 7.984558451341558E9 ; 9971.92
29 ; 668626.6375361403 ; 4.010883010897007E8 ; 1.7706402776977208E7 ; 8.385640868905162E9 ; 10328.06
30 ; 672164.0623857112 ; 4.0109442397255874E8 ; 1.837502941451335E7 ; 8.786729169994862E9 ; 10684.199999999999
31 ; 675877.6913533774 ; 4.0110077698130333E8 ; 1.904719347689906E7 ; 9.18782359396742E9 ; 11040.339999999998
32 ; 677099.3849617159 ; 4.0110735100271153E8 ; 1.972307116825244E7 ; 9.588924370948725E9 ; 11396.479999999998
33 ; 684041.0121638635 ; 4.0111413707394946E8 ; 2.0400170553214155E7 ; 9.990031721951437E9 ; 11752.619999999997
34 ; 686138.6048495781 ; 4.011211264103582E8 ; 2.1084211565378018E7 ; 1.0391145859025387E10 ; 12108.759999999997
35 ; 688125.4935016674 ; 4.011283104285767E8 ; 2.1770350170227595E7 ; 1.0792266985435745E10 ; 12464.899999999996
36 ; 692731.6641558585 ; 4.011356807653348E8 ; 2.245847566372926E7 ; 1.1193395295864323E10 ; 12821.039999999995
37 ; 696034.3950269811 ; 4.0114322929227567E8 ; 2.315120732788512E7 ; 1.1594530976629658E10 ; 13177.179999999995
38 ; 698768.2983901441 ; 4.011509481271834E8 ; 2.3847241722912103E7 ; 1.1995674205921934E10 ; 13533.319999999994
39 ; 702678.9483981187 ; 4.0115882964199066E8 ; 2.4546010021302246E7 ; 1.2396825154049118E10 ; 13889.459999999994
40 ; 704728.7372361349 ; 4.011668664679373E8 ; 2.5248688969700363E7 ; 1.2797983983691109E10 ; 14245.599999999993
41 ; 708032.3408518144 ; 4.0117505149823296E8 ; 2.5953417706936497E7 ; 1.3199150850159046E10 ; 14601.739999999993
42 ; 708259.169537353 ; 4.011833778885603E8 ; 2.666145004778831E7 ; 1.360032590165728E10 ; 14957.879999999992
43 ; 714093.1739541986 ; 4.0119183905573004E8 ; 2.7369709217325665E7 ; 1.4001509279545841E10 ; 15314.019999999991
44 ; 715653.6880920422 ; 4.0120042867477626E8 ; 2.8083802391279865E7 ; 1.4402701118601572E10 ; 15670.15999999999
45 ; 715885.1868917589 ; 4.0120914067475116E8 ; 2.8799456079371907E7 ; 1.4803901547276348E10 ; 16026.29999999999
46 ; 721227.4891997431 ; 4.012179692334562E8 ; 2.9515341266263667E7 ; 1.52051106879511E10 ; 16382.43999999999
47 ; 722992.9488758222 ; 4.012269087713165E8 ; 3.023656875546341E7 ; 1.5606328657184555E10 ; 16738.57999999999
48 ; 726231.9086234499 ; 4.012359539445862E8 ; 3.0959561704339232E7 ; 1.6007555565955872E10 ; 17094.71999999999
49 ; 730639.4574513389 ; 4.0124509963804305E8 ; 3.168579361296268E7 ; 1.6408791519900457E10 ; 17450.85999999999
50 ; 729875.1935978697 ; 4.012543409573159E8 ; 3.241643307041402E7 ; 1.68100366195385E10 ; 17806.99999999999
51 ; 733609.380007653 ; 4.012636732209636E8 ; 3.314630826401189E7 ; 1.7211290960495815E10 ; 18163.13999999999
52 ; 734674.2258689998 ; 4.012730919524092E8 ; 3.3879917644019544E7 ; 1.7612554633716778E10 ; 18519.279999999988
53 ; 737915.4179457511 ; 4.0128259287181664E8 ; 3.4614591869888544E7 ; 1.8013827725669186E10 ; 18875.419999999987
54 ; 738860.5474871842 ; 4.012921718879818E8 ; 3.5352507287834294E7 ; 1.8415110318541E10 ; 19231.559999999987
55 ; 740809.0067920636 ; 4.013018250902994E8 ; 3.609136783532148E7 ; 1.881640249042898E10 ; 19587.699999999986
56 ; 740488.4132786902 ; 4.0131154874085414E8 ; 3.683217684211354E7 ; 1.921770431551928E10 ; 19943.839999999986
57 ; 744360.1168241459 ; 4.0132133926667523E8 ; 3.757266525539223E7 ; 1.961901586426013E10 ; 20299.979999999985
58 ; 744765.1061314151 ; 4.013311932521863E8 ; 3.831702537221637E7 ; 2.0020337203526806E10 ; 20656.119999999984
59 ; 749378.6889674437 ; 4.0134110743187475E8 ; 3.9061790478347786E7 ; 2.042166839677899E10 ; 21012.259999999984
60 ; 751665.0588348818 ; 4.013510786831978E8 ; 3.981116916731523E7 ; 2.0823009504210865E10 ; 21368.399999999983
61 ; 754820.1156766902 ; 4.013611040197376E8 ; 4.056283422615011E7 ; 2.1224360582894062E10 ; 21724.539999999983
62 ; 757661.3437680183 ; 4.0137118058461523E8 ; 4.1317654341826804E7 ; 2.16257216869138E10 ; 22080.679999999982
63 ; 758838.1621527813 ; 4.013813056441665E8 ; 4.207531568559482E7 ; 2.2027092867498413E10 ; 22436.81999999998
64 ; 758923.3795799642 ; 4.013914765818826E8 ; 4.28341538477476E7 ; 2.242847417314258E10 ; 22792.95999999998
65 ; 762518.8339078027 ; 4.0140169089261246E8 ; 4.359307722732756E7 ; 2.282986564972446E10 ; 23149.09999999998
66 ; 765040.971816899 ; 4.0141194617702717E8 ; 4.435559606123537E7 ; 2.3231267340617073E10 ; 23505.23999999998
67 ; 766285.4160178157 ; 4.0142224013633835E8 ; 4.5120637033052266E7 ; 2.36326792867941E10 ; 23861.37999999998
68 ; 769095.7864411824 ; 4.0143257056726724E8 ; 4.588692244907008E7 ; 2.403410152693044E10 ; 24217.51999999998
69 ; 771453.654088764 ; 4.014429353572557E8 ; 4.6656018235511266E7 ; 2.4435534097497707E10 ; 24573.659999999978
70 ; 771817.7349555366 ; 4.014533324799132E8 ; 4.742747188960003E7 ; 2.483697703285496E10 ; 24929.799999999977
71 ; 773687.4599885945 ; 4.0146375999069E8 ; 4.8199289624555565E7 ; 2.5238430365334873E10 ; 25285.939999999977
72 ; 776118.0397853543 ; 4.0147421602276945E8 ; 4.897297708454416E7 ; 2.563989412532556E10 ; 25642.079999999976
73 ; 775632.5112277104 ; 4.0148469878316927E8 ; 4.9749095124329515E7 ; 2.604136834134833E10 ; 25998.219999999976
74 ; 778265.3604936999 ; 4.014952065490445E8 ; 5.052472763555723E7 ; 2.64428530401315E10 ; 26354.359999999975
75 ; 779433.6705571238 ; 4.015057376641811E8 ; 5.1302992996050924E7 ; 2.6844348246680546E10 ; 26710.499999999975
76 ; 780127.7088275593 ; 4.0151629053567445E8 ; 5.208242666660805E7 ; 2.7245853984344727E10 ; 27066.639999999974
77 ; 782023.7012122595 ; 4.015268636307806E8 ; 5.286255437543561E7 ; 2.76473702748804E10 ; 27422.779999999973
78 ; 784540.1986716326 ; 4.0153745547393495E8 ; 5.364457807664787E7 ; 2.804889713851118E10 ; 27778.919999999973
79 ; 784257.942269118 ; 4.0154806464392823E8 ; 5.44291182753195E7 ; 2.8450434593985115E10 ; 28135.059999999972
80 ; 788117.3964980685 ; 4.015586897712321E8 ; 5.521337621758862E7 ; 2.8851982658629044E10 ; 28491.19999999997
81 ; 789903.0275425472 ; 4.015693295354676E8 ; 5.600149361408669E7 ; 2.9253541348400276E10 ; 28847.33999999997
82 ; 790372.6790289631 ; 4.015799826630076E8 ; 5.6791396641629234E7 ; 2.9655110677935745E10 ; 29203.47999999997
83 ; 789723.4907644102 ; 4.015906479247077E8 ; 5.75817693206582E7 ; 3.005669066059875E10 ; 29559.61999999997
84 ; 794506.8092204854 ; 4.016013241337576E8 ; 5.837149281142261E7 ; 3.045828130852346E10 ; 29915.75999999997
85 ; 796846.8790974792 ; 4.0161201014364654E8 ; 5.9165999620643094E7 ; 3.085988263265722E10 ; 30271.89999999997
86 ; 796329.8777049092 ; 4.0162270484623796E8 ; 5.996284649974057E7 ; 3.1261494642800865E10 ; 30628.039999999968
87 ; 799569.6361324902 ; 4.0163340716994536E8 ; 6.075917637744548E7 ; 3.1663117347647102E10 ; 30984.179999999968
88 ; 798616.1783649056 ; 4.0164411607800555E8 ; 6.1558746013577975E7 ; 3.2064750754817047E10 ; 31340.319999999967
89 ; 801936.1333664117 ; 4.0165483056684303E8 ; 6.235736219194288E7 ; 3.2466394870895054E10 ; 31696.459999999966
90 ; 801235.1788337505 ; 4.01665549664521E8 ; 6.315929832530929E7 ; 3.28680497014619E10 ; 32052.599999999966
91 ; 802768.4732370647 ; 4.0167627242927325E8 ; 6.3960533504143044E7 ; 3.326971525112642E10 ; 32408.739999999965
92 ; 806322.1715346283 ; 4.0168699794811445E8 ; 6.476330197738011E7 ; 3.367139152355569E10 ; 32764.879999999965
93 ; 807023.6705809246 ; 4.016977253355218E8 ; 6.556962414891474E7 ; 3.4073078521503807E10 ; 33121.01999999997
94 ; 806931.350059199 ; 4.017084537321863E8 ; 6.637664781949566E7 ; 3.447477624683933E10 ; 33477.15999999997
95 ; 808371.0387476474 ; 4.017191823038285E8 ; 6.718357916955486E7 ; 3.487648470057152E10 ; 33833.29999999997
96 ; 807622.7452076849 ; 4.017299102400762E8 ; 6.799195020830251E7 ; 3.527820388287534E10 ; 34189.439999999966
97 ; 808185.9094938054 ; 4.017406367533994E8 ; 6.87995729535102E7 ; 3.567993379311542E10 ; 34545.579999999965
98 ; 811546.3532468624 ; 4.017513610781002E8 ; 6.9607758863004E7 ; 3.608167442986882E10 ; 34901.719999999965
99 ; 814018.008473352 ; 4.017620824693548E8 ; 7.041930521625087E7 ; 3.648342579094692E10 ; 35257.859999999964
100 ; 810580.4456470934 ; 4.017728002023036E8 ; 7.123332322472422E7 ; 3.6885187873416275E10 ; 35613.99999999996
101 ; 816363.7815699218 ; 4.01783513571188E8 ; 7.204390367037131E7 ; 3.7286960673618576E10 ; 35970.13999999996
102 ; 815133.9303916687 ; 4.0179422188853085E8 ; 7.286026745194124E7 ; 3.7688744187189766E10 ; 36326.27999999996
103 ; 818724.9583494917 ; 4.018049244843575E8 ; 7.36754013823329E7 ; 3.80905384090783E10 ; 36682.41999999996
104 ; 818259.9041198697 ; 4.0181562070545673E8 ; 7.44941263406824E7 ; 3.849234333356266E10 ; 37038.55999999996
105 ; 819776.1411505796 ; 4.018263099146775E8 ; 7.531238624480227E7 ; 3.889415895426812E10 ; 37394.69999999996
106 ; 820426.5585409428 ; 4.0183699149026144E8 ; 7.613216238595285E7 ; 3.92959852641828E10 ; 37750.83999999996
107 ; 821591.999580853 ; 4.018476648252077E8 ; 7.695258894449379E7 ; 3.9697822255673065E10 ; 38106.97999999996
108 ; 822295.7228800314 ; 4.018583293266692E8 ; 7.777418094407465E7 ; 4.0099669920498276E10 ; 38463.11999999996
109 ; 821121.91775375 ; 4.0186898441537845E8 ; 7.859647666695468E7 ; 4.050152824982494E10 ; 38819.25999999996
110 ; 823651.0069441661 ; 4.0187962952510095E8 ; 7.941759858470844E7 ; 4.090339723424032E10 ; 39175.39999999996
111 ; 823666.303833801 ; 4.0189026410211515E8 ; 8.02412495916526E7 ; 4.130527686376542E10 ; 39531.53999999996
112 ; 823943.6094395722 ; 4.0190088760471785E8 ; 8.10649158954864E7 ; 4.170716712786753E10 ; 39887.67999999996
113 ; 826419.815047547 ; 4.0191149950275254E8 ; 8.188885950492597E7 ; 4.210906801547225E10 ; 40243.819999999956
114 ; 826738.987746322 ; 4.0192209927716076E8 ; 8.271527931997351E7 ; 4.2510979514975006E10 ; 40599.959999999955
115 ; 827226.7595085925 ; 4.019326864195544E8 ; 8.354201830771984E7 ; 4.291290161425217E10 ; 40956.099999999955
116 ; 826540.9435786384 ; 4.019432604318084E8 ; 8.436924506722844E7 ; 4.331483430067172E10 ; 41312.239999999954
117 ; 827856.9245426246 ; 4.0195382082567215E8 ; 8.519578601080708E7 ; 4.371677756110353E10 ; 41668.379999999954
118 ; 830644.259746136 ; 4.0196436712239957E8 ; 8.60236429353497E7 ; 4.41187313819292E10 ; 42024.51999999995
119 ; 830088.1886477659 ; 4.019748988523956E8 ; 8.685428719509584E7 ; 4.45206957490516E10 ; 42380.65999999995
120 ; 829760.2265899857 ; 4.0198541555488E8 ; 8.76843753837436E7 ; 4.492267064790399E10 ; 42736.79999999995
121 ; 832527.3515110874 ; 4.019959167775656E8 ; 8.851413561033359E7 ; 4.532465606345887E10 ; 43092.93999999995
122 ; 831104.0249030216 ; 4.0200640207635176E8 ; 8.934666296184468E7 ; 4.5726651980236435E10 ; 43449.07999999995
123 ; 830802.3756273085 ; 4.0201687101503175E8 ; 9.01777669867477E7 ; 4.612865838231279E10 ; 43805.21999999995
124 ; 832798.8299463921 ; 4.020273231650131E8 ; 9.1008569362375E7 ; 4.653067525332782E10 ; 44161.35999999995
125 ; 831123.8599702531 ; 4.020377581050508E8 ; 9.18413681923214E7 ; 4.6932702576492836E10 ; 44517.49999999995
126 ; 830596.9080740558 ; 4.020481754209924E8 ; 9.267249205229166E7 ; 4.7334740334597885E10 ; 44873.63999999995
127 ; 829415.3904759404 ; 4.02058574705534E8 ; 9.350308896036571E7 ; 4.7736788510018875E10 ; 45229.77999999995
128 ; 829679.1934428439 ; 4.020689555579879E8 ; 9.433250435084166E7 ; 4.813884708472441E10 ; 45585.91999999995
129 ; 829377.4020350865 ; 4.0207931758405983E8 ; 9.51621835442845E7 ; 4.85409160402824E10 ; 45942.05999999995
130 ; 828313.9897456411 ; 4.020896603956357E8 ; 9.599156094631958E7 ; 4.894299535786646E10 ; 46298.199999999946
131 ; 828938.6323502089 ; 4.0209998361057866E8 ; 9.681987493606523E7 ; 4.93450850182621E10 ; 46654.339999999946
132 ; 827985.6309412539 ; 4.0211028685253394E8 ; 9.764881356841543E7 ; 4.974718500187268E10 ; 47010.479999999945
133 ; 828411.172131875 ; 4.021205697507427E8 ; 9.847679919935669E7 ; 5.014929528872521E10 ; 47366.619999999944
134 ; 826408.4763713413 ; 4.021308319398637E8 ; 9.930521037148857E7 ; 5.055141585847595E10 ; 47722.759999999944
135 ; 827213.8607613702 ; 4.0214107305980253E8 ; 1.0013161884785992E8 ; 5.095354669041582E10 ; 48078.89999999994
136 ; 828163.1677357287 ; 4.0215129275554824E8 ; 1.009588327086213E8 ; 5.135568776347562E10 ; 48435.03999999994
137 ; 828905.2645433038 ; 4.021614906770166E8 ; 1.0178699587635702E8 ; 5.175783905623116E10 ; 48791.17999999994
138 ; 830050.6839930945 ; 4.021716664789006E8 ; 1.0261590114090033E8 ; 5.216000054690818E10 ; 49147.31999999994
139 ; 827976.9436599979 ; 4.021818198205263E8 ; 1.0344595182489343E8 ; 5.256217221338708E10 ; 49503.45999999994
140 ; 828685.2080634821 ; 4.021919503657155E8 ; 1.0427392876855342E8 ; 5.29643540332076E10 ; 49859.59999999994
141 ; 827770.1460220288 ; 4.022020577826537E8 ; 1.051026139766169E8 ; 5.336654598357332E10 ; 50215.73999999994
142 ; 827865.7706892177 ; 4.0221214174376357E8 ; 1.0593038412263893E8 ; 5.376874804135597E10 ; 50571.87999999994
143 ; 827127.0410377601 ; 4.022222019255837E8 ; 1.0675824989332815E8 ; 5.417096018309974E10 ; 50928.01999999994
144 ; 828764.1346606325 ; 4.0223223800865245E8 ; 1.075853769343659E8 ; 5.457318238502532E10 ; 51284.15999999994
145 ; 829831.7961538932 ; 4.022422496773958E8 ; 1.0841414106902653E8 ; 5.497541462303397E10 ; 51640.29999999994
146 ; 831718.6578951912 ; 4.022522366200211E8 ; 1.0924397286518042E8 ; 5.537765687271137E10 ; 51996.43999999994
147 ; 831985.8719118655 ; 4.0226219852841383E8 ; 1.1007569152307561E8 ; 5.577990910933139E10 ; 52352.579999999936
148 ; 831500.8354637078 ; 4.022721350980389E8 ; 1.1090767739498748E8 ; 5.61821713078598E10 ; 52708.719999999936
149 ; 836487.4392172231 ; 4.022820460278466E8 ; 1.1173917823045118E8 ; 5.658444344295784E10 ; 53064.859999999935
150 ; 835319.2248976986 ; 4.0229193102018094E8 ; 1.125756656696684E8 ; 5.698672548898569E10 ; 53420.999999999935
151 ; 839799.8190152964 ; 4.0230178978069305E8 ; 1.134109848945661E8 ; 5.738901742000587E10 ; 53777.139999999934
152 ; 840865.9339109747 ; 4.0231162201825714E8 ; 1.142507847135814E8 ; 5.779131920978656E10 ; 54133.27999999993
153 ; 839819.2093066165 ; 4.0232142744488966E8 ; 1.1509165064749238E8 ; 5.819363083180482E10 ; 54489.41999999993
154 ; 843302.7948460461 ; 4.023312057756727E8 ; 1.1593146985679899E8 ; 5.859595225924971E10 ; 54845.55999999993
155 ; 846852.7750723524 ; 4.023409567286787E8 ; 1.1677477265164503E8 ; 5.899828346502538E10 ; 55201.69999999993
156 ; 846140.1782943819 ; 4.0235068002489996E8 ; 1.1762162542671739E8 ; 5.940062442175406E10 ; 55557.83999999993
157 ; 848724.3568058537 ; 4.023603753881792E8 ; 1.1846776560501176E8 ; 5.980297510177896E10 ; 55913.97999999993
158 ; 850751.0148597657 ; 4.0237004254514396E8 ; 1.1931648996181762E8 ; 6.020533547716714E10 ; 56270.11999999993
159 ; 852475.8822657668 ; 4.023796812251431E8 ; 1.2016724097667739E8 ; 6.060770551971228E10 ; 56626.25999999993
160 ; 854111.4098584707 ; 4.023892911601856E8 ; 1.2101971685894315E8 ; 6.101008520093742E10 ; 56982.39999999993
161 ; 855960.1455019674 ; 4.0239887208488184E8 ; 1.2187382826880161E8 ; 6.141247449209761E10 ; 57338.53999999993
162 ; 854004.5740573147 ; 4.024084237363874E8 ; 1.2272978841430359E8 ; 6.1814873364182495E10 ; 57694.67999999993
163 ; 857127.2304602297 ; 4.0241794585434836E8 ; 1.235837929883609E8 ; 6.2217281787918884E10 ; 58050.81999999993
164 ; 858718.6212944711 ; 4.024274381808492E8 ; 1.2444092021882112E8 ; 6.261969973377323E10 ; 58406.95999999993
165 ; 860191.881808846 ; 4.0243690046036243E8 ; 1.2529963884011559E8 ; 6.302212717195408E10 ; 58763.099999999926
166 ; 861520.0477741957 ; 4.0244633243970025E8 ; 1.2615983072192444E8 ; 6.3424564072414444E10 ; 59119.239999999925
167 ; 864126.9286616577 ; 4.0245573386796784E8 ; 1.2702135076969863E8 ; 6.382701040485414E10 ; 59475.379999999925
168 ; 863591.1601408146 ; 4.024651044965186E8 ; 1.278854776983603E8 ; 6.422946613872211E10 ; 59831.519999999924
169 ; 865092.3508000352 ; 4.024744440789106E8 ; 1.287490688585011E8 ; 6.463193124321863E10 ; 60187.65999999992
170 ; 867548.1378369542 ; 4.0248375237086546E8 ; 1.2961416120930114E8 ; 6.503440568729754E10 ; 60543.79999999992
171 ; 865575.7465304215 ; 4.024930291302281E8 ; 1.3048170934713809E8 ; 6.54368894396684E10 ; 60899.93999999992
172 ; 869873.3569745981 ; 4.0250227411692786E8 ; 1.3134728509366852E8 ; 6.583938246879863E10 ; 61256.07999999992
173 ; 871240.5188818295 ; 4.025114870929418E8 ; 1.3221715845064312E8 ; 6.624188474291556E10 ; 61612.21999999992
174 ; 874828.9154210959 ; 4.0252066782225853E8 ; 1.3308839896952495E8 ; 6.66443962300085E10 ; 61968.35999999992
175 ; 875909.7164208876 ; 4.025298160708439E8 ; 1.3396322788494605E8 ; 6.704691689783076E10 ; 62324.49999999992
176 ; 878164.4817630835 ; 4.025389316066076E8 ; 1.3483913760136694E8 ; 6.74494467139016E10 ; 62680.63999999992
177 ; 879448.0686679998 ; 4.025480141993714E8 ; 1.3571730208313003E8 ; 6.785198564550821E10 ; 63036.77999999992
