CSV File for the Network on Day 236
1 - Minute m 
2 - Power Consumed at minute m 
3 - Power Produced at minute m 
4 - Energy Consumed since the beginning of the day 
5 - Energy Produced since the beginning of the day 
6 - Energy Lost since the beginning of the day 
 
0 ; 4494946.917931147 ; 6.319354159092247E8 ; 0.0 ; 0.0 ; 0.0
1 ; 4538921.920915413 ; 6.328229143825321E8 ; 4494946.917931147 ; 6.319354159092247E8 ; 0.0
2 ; 4581396.682846732 ; 6.355649010295138E8 ; 9033868.83884656 ; 1.2647583302917569E9 ; 0.0
3 ; 4633501.7683608625 ; 6.401617078288487E8 ; 1.3615265521693293E7 ; 1.9003232313212707E9 ; 0.0
4 ; 4689840.689924854 ; 6.466136892942927E8 ; 1.8248767290054157E7 ; 2.5404849391501193E9 ; 0.0
5 ; 4759940.058920264 ; 6.549212131665471E8 ; 2.2938607979979012E7 ; 3.187098628444412E9 ; 0.0
6 ; 4856225.969457256 ; 6.650846464091364E8 ; 2.7698548038899276E7 ; 3.842019841610959E9 ; 0.0
7 ; 4983225.632660408 ; 6.771043365182009E8 ; 3.2554774008356534E7 ; 4.507104488020096E9 ; 0.0
8 ; 5179800.674717389 ; 6.909805892375504E8 ; 3.7537999641016945E7 ; 5.184208824538297E9 ; 0.0
9 ; 5461922.930542749 ; 7.06713645097103E8 ; 4.2717800315734334E7 ; 5.875189413775847E9 ; 0.0
10 ; 5900819.289164719 ; 7.243036583342611E8 ; 4.817972324627709E7 ; 6.581903058872951E9 ; 0.0
11 ; 6591127.846917831 ; 7.437506821341403E8 ; 5.408054253544181E7 ; 7.3062067172072115E9 ; 0.0
12 ; 7702824.986412043 ; 7.650546633116245E8 ; 6.067167038235964E7 ; 8.0499573993413515E9 ; 0.0
13 ; 8771822.259144712 ; 7.882154476293119E8 ; 6.837449536877169E7 ; 8.815012062652977E9 ; 0.0
14 ; 8907532.23831135 ; 8.132327945572848E8 ; 7.71463176279164E7 ; 9.60322751028229E9 ; 0.0
15 ; 8958621.015358182 ; 8.401063983517321E8 ; 8.605384986622775E7 ; 1.0416460304839575E10 ; 0.0
16 ; 9015322.109189825 ; 8.688359115165151E8 ; 9.501247088158593E7 ; 1.1256566703191307E10 ; 0.0
17 ; 9059392.275775533 ; 8.99420967088108E8 ; 1.0402779299077575E8 ; 1.2125402614707823E10 ; 0.0
18 ; 9122124.131698579 ; 9.3186119732581E8 ; 1.1308718526655129E8 ; 1.302482358179593E10 ; 0.0
19 ; 9172257.013627212 ; 9.661562477158655E8 ; 1.2220930939824986E8 ; 1.395668477912174E10 ; 0.0
20 ; 9224442.758846585 ; 1.0023057862795949E9 ; 1.3138156641187708E8 ; 1.4922841026837606E10 ; 0.0
21 ; 9278806.788275417 ; 1.0403095088385234E9 ; 1.4060600917072368E8 ; 1.59251468131172E10 ; 0.0
22 ; 9338883.979767421 ; 1.0801671411624916E9 ; 1.498848159589991E8 ; 1.6965456321955725E10 ; 0.0
23 ; 9395235.437459186 ; 1.1218784389306998E9 ; 1.592236999387665E8 ; 1.8045623463118217E10 ; 0.0
24 ; 9454437.739249254 ; 1.1654431862980247E9 ; 1.686189353762257E8 ; 1.9167501902048916E10 ; 0.0
25 ; 9510862.558479536 ; 1.202989439063002E9 ; 1.7807337311547497E8 ; 2.033294508834694E10 ; 0.0
26 ; 9551498.934005393 ; 1.2030383183099418E9 ; 1.8758423567395452E8 ; 2.1535934527409943E10 ; 0.0
27 ; 9612237.024987103 ; 1.2030882949033427E9 ; 1.971357346079599E8 ; 2.2738972845719883E10 ; 0.0
28 ; 9663852.837002834 ; 1.203139242409818E9 ; 2.06747971632947E8 ; 2.3942061140623226E10 ; 0.0
29 ; 9718992.696135577 ; 1.2031910504897795E9 ; 2.1641182446994984E8 ; 2.5145200383033043E10 ; 0.0
30 ; 9775674.700516474 ; 1.2032436227639177E9 ; 2.2613081716608542E8 ; 2.6348391433522823E10 ; 0.0
31 ; 9825757.17592435 ; 1.2032968749251575E9 ; 2.3590649186660188E8 ; 2.755163505628674E10 ; 0.0
32 ; 9875964.6766677 ; 1.2033507330884247E9 ; 2.4573224904252625E8 ; 2.87549319312119E10 ; 0.0
33 ; 9929309.37674479 ; 1.2034051323604689E9 ; 2.5560821371919394E8 ; 2.9958282664300323E10 ; 0.0
34 ; 9974146.620679783 ; 1.203460015607451E9 ; 2.655375230959387E8 ; 3.1161687796660793E10 ; 0.0
35 ; 1.0026507364398118E7 ; 1.2035153323968503E9 ; 2.755116697166185E8 ; 3.2365147812268246E10 ; 0.0
36 ; 1.0070236651450226E7 ; 1.2035710380910034E9 ; 2.855381770810166E8 ; 3.3568663144665096E10 ; 0.0
37 ; 1.0114496676847197E7 ; 1.2036270930713532E9 ; 2.956084137324668E8 ; 3.47722341827561E10 ; 0.0
38 ; 1.016630411823346E7 ; 1.2036834620746844E9 ; 3.0572291040931404E8 ; 3.597586127582745E10 ; 0.0
39 ; 1.0204590187888239E7 ; 1.2037401136249151E9 ; 3.158892145275475E8 ; 3.717954473790214E10 ; 0.0
40 ; 1.0244862789089218E7 ; 1.203797019546225E9 ; 3.2609380471543574E8 ; 3.8383284851527054E10 ; 0.0
41 ; 1.029194337467456E7 ; 1.2038541545453203E9 ; 3.3633866750452495E8 ; 3.958708187107328E10 ; 0.0
42 ; 1.0325326282350179E7 ; 1.2039114958524415E9 ; 3.466306108791995E8 ; 4.07909360256186E10 ; 0.0
43 ; 1.0349344272132663E7 ; 1.2039690229122934E9 ; 3.569559371615497E8 ; 4.199484752147104E10 ; 0.0
44 ; 1.0391701973401686E7 ; 1.204026717117424E9 ; 3.673052814336823E8 ; 4.319881654438333E10 ; 0.0
45 ; 1.0423349757773306E7 ; 1.2040845615777464E9 ; 3.77696983407084E8 ; 4.4402843261500755E10 ; 0.0
46 ; 1.0454428560889643E7 ; 1.204142540920874E9 ; 3.8812033316485727E8 ; 4.56069278230785E10 ; 0.0
47 ; 1.0483200414074864E7 ; 1.2042006411187663E9 ; 3.985747617257469E8 ; 4.6811070363999374E10 ; 0.0
48 ; 1.0509291188159678E7 ; 1.2042588493368788E9 ; 4.0905796213982177E8 ; 4.801527100511814E10 ; 0.0
49 ; 1.0533371907493858E7 ; 1.204317153802608E9 ; 4.195672533279815E8 ; 4.921952985445502E10 ; 0.0
50 ; 1.0552385272731796E7 ; 1.2043755436903017E9 ; 4.301006252354753E8 ; 5.042384700825762E10 ; 0.0
51 ; 1.0578546394728562E7 ; 1.2044340090205245E9 ; 4.406530105082071E8 ; 5.162822255194792E10 ; 0.0
52 ; 1.0604567547537357E7 ; 1.2044925405716214E9 ; 4.512315569029356E8 ; 5.2832656560968445E10 ; 0.0
53 ; 1.0618519240594659E7 ; 1.2045511298019063E9 ; 4.6183612445047295E8 ; 5.403714910154007E10 ; 0.0
54 ; 1.0640706395875221E7 ; 1.204609768781054E9 ; 4.7245464369106764E8 ; 5.524170023134197E10 ; 0.0
55 ; 1.0668065852112174E7 ; 1.204668450129478E9 ; 4.8309535008694285E8 ; 5.6446310000123024E10 ; 0.0
56 ; 1.0679379697844021E7 ; 1.2047271669646602E9 ; 4.93763415939055E8 ; 5.76509784502525E10 ; 0.0
57 ; 1.0700935577186894E7 ; 1.2047859128535314E9 ; 5.0444279563689905E8 ; 5.885570561721716E10 ; 0.0
58 ; 1.0719811987313397E7 ; 1.2048446817701461E9 ; 5.1514373121408594E8 ; 6.0060491530070694E10 ; 0.0
59 ; 1.0742111496650275E7 ; 1.2049034680579824E9 ; 5.258635432013993E8 ; 6.126533621184084E10 ; 0.0
60 ; 1.0757504959258452E7 ; 1.2049622663963044E9 ; 5.366056546980496E8 ; 6.247023967989883E10 ; 0.0
61 ; 1.0776051971292753E7 ; 1.205021071770092E9 ; 5.473631596573081E8 ; 6.367520194629513E10 ; 0.0
62 ; 1.079847026623018E7 ; 1.2050798794431126E9 ; 5.581392116286008E8 ; 6.4880223018065216E10 ; 0.0
63 ; 1.0814333661057437E7 ; 1.2051386849337633E9 ; 5.689376818948311E8 ; 6.608530289750833E10 ; 0.0
64 ; 1.0834832213192316E7 ; 1.2051974839933612E9 ; 5.797520155558885E8 ; 6.729044158244209E10 ; 0.0
65 ; 1.0849714393453766E7 ; 1.2052562725866055E9 ; 5.905868477690809E8 ; 6.8495639066435455E10 ; 0.0
66 ; 1.086634713751525E7 ; 1.2053150468739607E9 ; 6.014365621625346E8 ; 6.970089533902206E10 ; 0.0
67 ; 1.0883380933339275E7 ; 1.2053738031957495E9 ; 6.123029093000499E8 ; 7.090621038589603E10 ; 0.0
68 ; 1.0905847844454492E7 ; 1.2054325380577683E9 ; 6.231862902333891E8 ; 7.211158418909178E10 ; 0.0
69 ; 1.091547514907542E7 ; 1.2054912481182585E9 ; 6.340921380778437E8 ; 7.331701672714955E10 ; 0.0
70 ; 1.093260255499754E7 ; 1.2055499301760895E9 ; 6.45007613226919E8 ; 7.45225079752678E10 ; 0.0
71 ; 1.0952847962576421E7 ; 1.2056085811600263E9 ; 6.559402157819166E8 ; 7.57280579054439E10 ; 0.0
72 ; 1.0966489819875017E7 ; 1.205667198118967E9 ; 6.66893063744493E8 ; 7.693366648660391E10 ; 0.0
73 ; 1.0979109037658501E7 ; 1.2057257782130523E9 ; 6.77859553564368E8 ; 7.813933368472289E10 ; 0.0
74 ; 1.1001142927264929E7 ; 1.2057843187055578E9 ; 6.888386626020265E8 ; 7.934505946293594E10 ; 0.0
75 ; 1.1011517658925008E7 ; 1.2058428169554896E9 ; 6.998398055292914E8 ; 8.05508437816415E10 ; 0.0
76 ; 1.1023010927157203E7 ; 1.205901270410819E9 ; 7.108513231882164E8 ; 8.175668659859698E10 ; 0.0
77 ; 1.1042883449044328E7 ; 1.2059596766022851E9 ; 7.218743341153736E8 ; 8.29625878690078E10 ; 0.0
78 ; 1.1039820351220407E7 ; 1.206018033137719E9 ; 7.32917217564418E8 ; 8.416854754561008E10 ; 0.0
79 ; 1.1039034448377484E7 ; 1.2060763376968346E9 ; 7.439570379156383E8 ; 8.53745655787478E10 ; 0.0
80 ; 1.1046412497243933E7 ; 1.206134588026446E9 ; 7.549960723640158E8 ; 8.658064191644464E10 ; 0.0
81 ; 1.1039419817177866E7 ; 1.2061927819360695E9 ; 7.660424848612597E8 ; 8.778677650447108E10 ; 0.0
82 ; 1.1042175541261625E7 ; 1.2062509172938733E9 ; 7.770819046784376E8 ; 8.899296928640715E10 ; 0.0
83 ; 1.1046131401647465E7 ; 1.2063089920229495E9 ; 7.881240802196993E8 ; 9.019922020370102E10 ; 0.0
84 ; 1.1044510291688321E7 ; 1.2063670040978734E9 ; 7.991702116213467E8 ; 9.140552919572397E10 ; 0.0
85 ; 1.103202654857134E7 ; 1.2064249515415268E9 ; 8.10214721913035E8 ; 9.261189619982184E10 ; 0.0
86 ; 1.1033158471109439E7 ; 1.2064828324221647E9 ; 8.212467484616064E8 ; 9.381832115136337E10 ; 0.0
87 ; 1.1035390786964038E7 ; 1.2065406448506994E9 ; 8.322799069327158E8 ; 9.502480398378554E10 ; 0.0
88 ; 1.1034370671107756E7 ; 1.2065983869781885E9 ; 8.433152977196798E8 ; 9.623134462863623E10 ; 0.0
89 ; 1.103139078767573E7 ; 1.2066560569935064E9 ; 8.543496683907876E8 ; 9.743794301561443E10 ; 0.0
90 ; 1.1026937952963438E7 ; 1.2067136531211836E9 ; 8.653810591784633E8 ; 9.864459907260793E10 ; 0.0
91 ; 1.1030069878795076E7 ; 1.2067711736194053E9 ; 8.764079971314268E8 ; 9.985131272572911E10 ; 0.0
92 ; 1.1022276644109452E7 ; 1.2068286167781463E9 ; 8.874380670102218E8 ; 1.0105808389934851E11 ; 0.0
93 ; 1.1024078219195394E7 ; 1.2068859809174438E9 ; 8.984603436543313E8 ; 1.0226491251612666E11 ; 0.0
94 ; 1.1018125652258549E7 ; 1.2069432643857846E9 ; 9.094844218735267E8 ; 1.0347179849704411E11 ; 0.0
95 ; 1.1013289708541721E7 ; 1.2070004655586066E9 ; 9.205025475257852E8 ; 1.046787417614299E11 ; 0.0
96 ; 1.100628695780754E7 ; 1.2070575828369036E9 ; 9.31515837234327E8 ; 1.0588574222698851E11 ; 0.0
97 ; 1.1002539469155021E7 ; 1.2071146146459208E9 ; 9.425221241921345E8 ; 1.0709279980982541E11 ; 0.0
98 ; 1.0999578369656248E7 ; 1.20717155943394E9 ; 9.535246636612896E8 ; 1.0829991442447133E11 ; 0.0
99 ; 1.0992017854487363E7 ; 1.2072284156711464E9 ; 9.645242420309458E8 ; 1.0950708598390527E11 ; 0.0
100 ; 1.0990912001036014E7 ; 1.2072851818485677E9 ; 9.755162598854332E8 ; 1.1071431439957642E11 ; 0.0
101 ; 1.0979974625022266E7 ; 1.2073418564770827E9 ; 9.865071718864692E8 ; 1.1192159958142499E11 ; 0.0
102 ; 1.0970727819485264E7 ; 1.207398438086495E9 ; 9.974871465114915E8 ; 1.1312894143790207E11 ; 0.0
103 ; 1.0969336342236485E7 ; 1.2074549252246642E9 ; 1.0084578743309768E9 ; 1.1433633987598857E11 ; 0.0
104 ; 1.0970570970669005E7 ; 1.2075113164566944E9 ; 1.0194272106732134E9 ; 1.1554379480121324E11 ; 0.0
105 ; 1.095712689118515E7 ; 1.2075676103641717E9 ; 1.0303977816438824E9 ; 1.1675130611766994E11 ; 0.0
106 ; 1.0941245021684773E7 ; 1.2076238055444512E9 ; 1.0413549085350676E9 ; 1.179588737280341E11 ; 0.0
107 ; 1.0939748126036001E7 ; 1.2076799006099849E9 ; 1.0522961535567523E9 ; 1.1916649753357855E11 ; 0.0
108 ; 1.0930647780029312E7 ; 1.2077358941876953E9 ; 1.0632359016827884E9 ; 1.2037417743418854E11 ; 0.0
109 ; 1.0928395189644516E7 ; 1.207791784918383E9 ; 1.0741665494628177E9 ; 1.2158191332837624E11 ; 0.0
110 ; 1.0915003661619853E7 ; 1.2078475714561725E9 ; 1.0850949446524622E9 ; 1.2278970511329462E11 ; 0.0
111 ; 1.0904135428865168E7 ; 1.207903252467991E9 ; 1.0960099483140821E9 ; 1.239975526847508E11 ; 0.0
112 ; 1.0894190703104235E7 ; 1.2079588266330774E9 ; 1.1069140837429473E9 ; 1.2520545593721878E11 ; 0.0
113 ; 1.0892151850648079E7 ; 1.2080142926425207E9 ; 1.1178082744460516E9 ; 1.2641341476385185E11 ; 0.0
114 ; 1.0881396068676021E7 ; 1.2080696491988251E9 ; 1.1287004262966998E9 ; 1.2762142905649437E11 ; 0.0
115 ; 1.0875293602778822E7 ; 1.2081248950155025E9 ; 1.1395818223653758E9 ; 1.2882949870569319E11 ; 0.0
116 ; 1.0861251332447425E7 ; 1.208180028816685E9 ; 1.1504571159681547E9 ; 1.300376236007087E11 ; 0.0
117 ; 1.0847984454701781E7 ; 1.2082350493367636E9 ; 1.1613183673006022E9 ; 1.3124580362952538E11 ; 0.0
118 ; 1.0836367830139635E7 ; 1.208289955320044E9 ; 1.1721663517553039E9 ; 1.3245403867886214E11 ; 0.0
119 ; 1.082799810633402E7 ; 1.2083447455204263E9 ; 1.1830027195854435E9 ; 1.3366232863418217E11 ; 0.0
120 ; 1.0812559063707571E7 ; 1.208399418701096E9 ; 1.1938307176917775E9 ; 1.348706733797026E11 ; 0.0
121 ; 1.08055243538177E7 ; 1.2084539736342416E9 ; 1.204643276755485E9 ; 1.360790727984037E11 ; 0.0
122 ; 1.0786482472755393E7 ; 1.208508409100779E9 ; 1.2154488011093028E9 ; 1.3728752677203795E11 ; 0.0
123 ; 1.077979770179125E7 ; 1.208562723890098E9 ; 1.2262352835820582E9 ; 1.3849603518113873E11 ; 0.0
124 ; 1.0764464036394216E7 ; 1.208616916799818E9 ; 1.2370150812838495E9 ; 1.3970459790502884E11 ; 0.0
125 ; 1.0752161432784054E7 ; 1.208670986635561E9 ; 1.2477795453202436E9 ; 1.4091321482182864E11 ; 0.0
126 ; 1.0744390143294493E7 ; 1.2087249322107341E9 ; 1.2585317067530277E9 ; 1.421218858084642E11 ; 0.0
127 ; 1.07224970312315E7 ; 1.2087787523463266E9 ; 1.2692760968963223E9 ; 1.4333061074067493E11 ; 0.0
128 ; 1.0713435214834731E7 ; 1.2088324458707154E9 ; 1.2799985939275537E9 ; 1.4453938949302124E11 ; 0.0
129 ; 1.0694182271266669E7 ; 1.2088860116194828E9 ; 1.2907120291423883E9 ; 1.4574822193889197E11 ; 0.0
130 ; 1.0677669324764017E7 ; 1.2089394484352434E9 ; 1.301406211413655E9 ; 1.4695710795051144E11 ; 0.0
131 ; 1.0643694084823245E7 ; 1.2089927551674814E9 ; 1.312083880738419E9 ; 1.481660473989467E11 ; 0.0
132 ; 1.0620919991414193E7 ; 1.2090459306723955E9 ; 1.3227275748232422E9 ; 1.4937504015411417E11 ; 0.0
133 ; 1.0596848020122562E7 ; 1.2090989738127513E9 ; 1.3333484948146565E9 ; 1.5058408608478656E11 ; 0.0
134 ; 1.0561418820394253E7 ; 1.2091518834577446E9 ; 1.343945342834779E9 ; 1.517931850585993E11 ; 0.0
135 ; 1.0532344820721148E7 ; 1.2092046584828696E9 ; 1.3545067616551733E9 ; 1.5300233694205704E11 ; 0.0
136 ; 1.050167515213428E7 ; 1.209257297769794E9 ; 1.3650391064758945E9 ; 1.5421154160053992E11 ; 0.0
137 ; 1.0469685600042716E7 ; 1.2093098002062418E9 ; 1.3755407816280286E9 ; 1.5542079889830972E11 ; 0.0
138 ; 1.044364047488871E7 ; 1.209362164685883E9 ; 1.3860104672280715E9 ; 1.5663010869851596E11 ; 0.0
139 ; 1.0418418532406645E7 ; 1.2094143901082277E9 ; 1.3964541077029603E9 ; 1.5783947086320184E11 ; 0.0
140 ; 1.0392774572967492E7 ; 1.2094664753785248E9 ; 1.4068725262353668E9 ; 1.5904888525331006E11 ; 0.0
141 ; 1.0354944687770734E7 ; 1.2095184194076698E9 ; 1.4172653008083344E9 ; 1.602583517286886E11 ; 0.0
142 ; 1.0326428414949473E7 ; 1.209570221112115E9 ; 1.4276202454961052E9 ; 1.6146787014809628E11 ; 0.0
143 ; 1.0297358436496727E7 ; 1.2096218794137836E9 ; 1.4379466739110546E9 ; 1.626774403692084E11 ; 0.0
144 ; 1.026275760394776E7 ; 1.2096733932399902E9 ; 1.4482440323475513E9 ; 1.638870622486222E11 ; 0.0
145 ; 1.0240767641453594E7 ; 1.209724761523366E9 ; 1.4585067899514992E9 ; 1.6509673564186218E11 ; 0.0
146 ; 1.0231515943275645E7 ; 1.2097759832017853E9 ; 1.4687475575929527E9 ; 1.6630646040338556E11 ; 0.0
147 ; 1.0219204543861825E7 ; 1.209827057218299E9 ; 1.4789790735362284E9 ; 1.6751623638658734E11 ; 0.0
148 ; 1.020360147797918E7 ; 1.2098779825210695E9 ; 1.4891982780800903E9 ; 1.6872606344380563E11 ; 0.0
149 ; 1.0192185059530986E7 ; 1.20992875806331E9 ; 1.4994018795580695E9 ; 1.699359414263267E11 ; 0.0
150 ; 1.017496898228248E7 ; 1.2099793828032281E9 ; 1.5095940646176004E9 ; 1.7114587018439E11 ; 0.0
151 ; 1.015309990623724E7 ; 1.2100298557039695E9 ; 1.5197690335998828E9 ; 1.7235584956719324E11 ; 0.0
152 ; 1.014661443972617E7 ; 1.2100801757335682E9 ; 1.52992213350612E9 ; 1.7356587942289722E11 ; 0.0
153 ; 1.0132592100470394E7 ; 1.2101303418648982E9 ; 1.540068747945846E9 ; 1.747759595986308E11 ; 0.0
154 ; 1.011550279691857E7 ; 1.210180353075626E9 ; 1.5502013400463164E9 ; 1.759860899404957E11 ; 0.0
155 ; 1.009565790232136E7 ; 1.2102302083481688E9 ; 1.560316842843235E9 ; 1.7719627029357132E11 ; 0.0
156 ; 1.007948392398378E7 ; 1.2102799066696534E9 ; 1.5704125007455564E9 ; 1.784065005019195E11 ; 0.0
157 ; 1.0065468339624446E7 ; 1.2103294470318773E9 ; 1.5804919846695402E9 ; 1.7961678040858914E11 ; 0.0
158 ; 1.0055105604756083E7 ; 1.2103788284312725E9 ; 1.5905574530091646E9 ; 1.8082710985562103E11 ; 0.0
159 ; 1.0039597542600404E7 ; 1.2104280498688724E9 ; 1.6006125586139207E9 ; 1.820374886840523E11 ; 0.0
160 ; 1.0022875659472272E7 ; 1.210477110350278E9 ; 1.610652156156521E9 ; 1.8324791673392117E11 ; 0.0
161 ; 1.0005267718206968E7 ; 1.2105260088856282E9 ; 1.6206750318159933E9 ; 1.8445839384427145E11 ; 0.0
162 ; 9984792.730636653 ; 1.2105747444895723E9 ; 1.6306802995342002E9 ; 1.8566891985315707E11 ; 0.0
163 ; 9974692.133475875 ; 1.2106233161812422E9 ; 1.6406650922648368E9 ; 1.8687949459764664E11 ; 0.0
164 ; 9956227.698866362 ; 1.2106717229842277E9 ; 1.6506397843983126E9 ; 1.8809011791382788E11 ; 0.0
165 ; 9945329.12417829 ; 1.2107199639265532E9 ; 1.660596012097179E9 ; 1.893007896368121E11 ; 0.0
166 ; 9923045.727712825 ; 1.2107680380406554E9 ; 1.6705413412213573E9 ; 1.9051150960073865E11 ; 0.0
167 ; 9909489.099510327 ; 1.2108159443633633E9 ; 1.6804643869490702E9 ; 1.917222776387793E11 ; 0.0
168 ; 9888418.463705255 ; 1.2108636819358783E9 ; 1.6903738760485806E9 ; 1.9293309358314267E11 ; 0.0
169 ; 9879687.46408033 ; 1.2109112498037572E9 ; 1.700262294512286E9 ; 1.9414395726507855E11 ; 0.0
170 ; 9864030.628751485 ; 1.2109586470168953E9 ; 1.7101419819763663E9 ; 1.9535486851488232E11 ; 0.0
171 ; 9842007.12979427 ; 1.2110058726295106E9 ; 1.7200060126051178E9 ; 1.9656582716189923E11 ; 0.0
172 ; 9832021.062147021 ; 1.2110529257001302E9 ; 1.7298480197349122E9 ; 1.9777683303452875E11 ; 0.0
173 ; 9813281.608951194 ; 1.211099805291576E9 ; 1.739680040797059E9 ; 1.9898788596022888E11 ; 0.0
174 ; 9804707.037459362 ; 1.2111465104709544E9 ; 1.7494933224060102E9 ; 2.0019898576552045E11 ; 0.0
175 ; 9788459.360810902 ; 1.2111930403096433E9 ; 1.7592980294434695E9 ; 2.014101322759914E11 ; 0.0
176 ; 9783705.695285337 ; 1.2112393938832827E9 ; 1.7690864888042805E9 ; 2.0262132531630103E11 ; 0.0
177 ; 9776390.028238075 ; 1.2112855702717662E9 ; 1.7788701944995658E9 ; 2.038325647101843E11 ; 0.0
178 ; 9752233.681872468 ; 1.2113315685592306E9 ; 1.788646584527804E9 ; 2.0504385028045605E11 ; 0.0
179 ; 9750686.718309905 ; 1.21137738783405E9 ; 1.7983988182096763E9 ; 2.062551818490153E11 ; 0.0
180 ; 9733170.850489734 ; 1.2114230271888287E9 ; 1.8081495049279861E9 ; 2.0746655923684933E11 ; 0.0
181 ; 9722671.667380825 ; 1.2114684857203941E9 ; 1.8178826757784758E9 ; 2.0867798226403818E11 ; 0.0
182 ; 9710836.014634676 ; 1.211513762529793E9 ; 1.8276053474458566E9 ; 2.0988945074975858E11 ; 0.0
183 ; 9705115.201601613 ; 1.211558856722285E9 ; 1.8373161834604912E9 ; 2.1110096451228836E11 ; 0.0
184 ; 9690658.862386733 ; 1.211603767407341E9 ; 1.8470212986620927E9 ; 2.1231252336901065E11 ; 0.0
185 ; 9682258.47230836 ; 1.2116484936986363E9 ; 1.8567119575244794E9 ; 2.13524127136418E11 ; 0.0
186 ; 9666324.038602667 ; 1.211693034714052E9 ; 1.8663942159967878E9 ; 2.1473577563011664E11 ; 0.0
187 ; 9667610.75810315 ; 1.2117373895756695E9 ; 1.8760605400353904E9 ; 2.159474686648307E11 ; 0.0
188 ; 9647946.042303175 ; 1.2117815574097705E9 ; 1.8857281507934935E9 ; 2.1715920605440637E11 ; 0.0
189 ; 9635933.277816525 ; 1.2118255373468354E9 ; 1.8953760968357966E9 ; 2.1837098761181613E11 ; 0.0
190 ; 9626084.438517142 ; 1.2118693285215425E9 ; 1.9050120301136131E9 ; 2.1958281314916296E11 ; 0.0
191 ; 9614377.618565822 ; 1.211912930072769E9 ; 1.9146381145521302E9 ; 2.207946824776845E11 ; 0.0
192 ; 9604384.876468565 ; 1.211956341143589E9 ; 1.924252492170696E9 ; 2.2200659540775726E11 ; 0.0
193 ; 9595420.155329043 ; 1.211999560881277E9 ; 1.9338568770471647E9 ; 2.2321855174890085E11 ; 0.0
194 ; 9582552.591381056 ; 1.2120425884373076E9 ; 1.9434522972024937E9 ; 2.2443055130978214E11 ; 0.0
195 ; 9575367.329374915 ; 1.2120854229673564E9 ; 1.9530348497938747E9 ; 2.2564259389821945E11 ; 0.0
196 ; 9564046.783354769 ; 1.2121280636313038E9 ; 1.9626102171232498E9 ; 2.268546793211868E11 ; 0.0
197 ; 9552391.045093723 ; 1.2121705095932367E9 ; 1.9721742639066045E9 ; 2.280668073848181E11 ; 0.0
