CSV File for the Network on Day 38
1 - Minute m 
2 - Power Consumed at minute m 
3 - Power Produced at minute m 
4 - Energy Consumed since the beginning of the day 
5 - Energy Produced since the beginning of the day 
6 - Energy Lost since the beginning of the day 
 
0 ; 3.839514953157066E7 ; 6.327103751322004E8 ; 0.0 ; 0.0 ; 0.0
1 ; 3.8437915994150445E7 ; 6.336133110107359E8 ; 3.839514953157066E7 ; 6.327103751322004E8 ; 0.0
2 ; 3.848237078130575E7 ; 6.363702502033488E8 ; 7.68330655257211E7 ; 1.2663236861429362E9 ; 0.0
3 ; 3.852692349030097E7 ; 6.409812743913116E8 ; 1.1531543630702686E8 ; 1.9026939363462849E9 ; 0.0
4 ; 3.8583911664946765E7 ; 6.47446459940697E8 ; 1.5384235979732782E8 ; 2.5436752107375965E9 ; 0.0
5 ; 3.865898984757777E7 ; 6.557658765523353E8 ; 1.9242627146227458E8 ; 3.191121670678293E9 ; 0.0
6 ; 3.874394451684247E7 ; 6.65939585934168E8 ; 2.3108526130985236E8 ; 3.8468875472306285E9 ; 0.0
7 ; 3.887148989652819E7 ; 6.779676405484741E8 ; 2.6982920582669485E8 ; 4.512827133164797E9 ; 0.0
8 ; 3.906125070493831E7 ; 6.918500824887834E8 ; 3.0870069572322303E8 ; 5.190794773713271E9 ; 0.0
9 ; 3.9342827888251126E7 ; 7.07586942539731E8 ; 3.477619464281613E8 ; 5.882644856202055E9 ; 0.0
10 ; 3.977656163109445E7 ; 7.251782394672775E8 ; 3.8710477431641245E8 ; 6.590231798741786E9 ; 0.0
11 ; 4.046550984133464E7 ; 7.446239795767682E8 ; 4.268813359475069E8 ; 7.315410038209064E9 ; 0.0
12 ; 4.157261956783165E7 ; 7.659241565628576E8 ; 4.6734684578884155E8 ; 8.060034017785831E9 ; 0.0
13 ; 4.263436416583547E7 ; 7.89078751659585E8 ; 5.089194653566732E8 ; 8.82595817434869E9 ; 0.0
14 ; 4.276231190178658E7 ; 8.140877340823162E8 ; 5.515538295225086E8 ; 9.615036926008274E9 ; 0.0
15 ; 4.28118264984518E7 ; 8.409510617375205E8 ; 5.943161414242952E8 ; 1.042912466009059E10 ; 0.0
16 ; 4.285929098780143E7 ; 8.696686821629193E8 ; 6.37127967922747E8 ; 1.127007572182811E10 ; 0.0
17 ; 4.2910371222074E7 ; 9.00240533650571E8 ; 6.799872589105484E8 ; 1.213974440399103E10 ; 0.0
18 ; 4.2963898991597615E7 ; 9.32666546499645E8 ; 7.228976301326225E8 ; 1.3039984937641602E10 ; 0.0
19 ; 4.3015239771686345E7 ; 9.669466443440691E8 ; 7.658615291242201E8 ; 1.3972651484141247E10 ; 0.0
20 ; 4.306415856311582E7 ; 1.0030807455025705E9 ; 8.088767688959064E8 ; 1.4939598128485315E10 ; 0.0
21 ; 4.311054701323616E7 ; 1.0410687643041083E9 ; 8.519409274590223E8 ; 1.5942678873987886E10 ; 0.0
22 ; 4.316311076923179E7 ; 1.0809106123493621E9 ; 8.950514744722584E8 ; 1.6983747638291994E10 ; 0.0
23 ; 4.321241830418949E7 ; 1.1226061996777802E9 ; 9.382145852414902E8 ; 1.8064658250641357E10 ; 0.0
24 ; 4.32667689155321E7 ; 1.1661554358187966E9 ; 9.814270035456797E8 ; 1.9187264450319138E10 ; 0.0
25 ; 4.331780902703447E7 ; 1.2036864761035352E9 ; 1.0246937724612118E9 ; 2.0353419886137936E10 ; 0.0
26 ; 4.3368112517293245E7 ; 1.2037205186749809E9 ; 1.0680115814882463E9 ; 2.155710636224147E10 ; 0.0
27 ; 4.3409134694931835E7 ; 1.2037560922934682E9 ; 1.1113796940055397E9 ; 2.276082688091645E10 ; 0.0
28 ; 4.345771194308686E7 ; 1.2037931123465703E9 ; 1.1547888287004714E9 ; 2.396458297320992E10 ; 0.0
29 ; 4.350318475691687E7 ; 1.2038314970203588E9 ; 1.1982465406435583E9 ; 2.5168376085556488E10 ; 0.0
30 ; 4.355795820621669E7 ; 1.203871167605263E9 ; 1.241749725400475E9 ; 2.6372207582576847E10 ; 0.0
31 ; 4.3600000679029964E7 ; 1.2039120487086504E9 ; 1.2853076836066918E9 ; 2.757607875018211E10 ; 0.0
32 ; 4.364347863230935E7 ; 1.20395406838707E9 ; 1.3289076842857218E9 ; 2.877999079889076E10 ; 0.0
33 ; 4.369358119461823E7 ; 1.2039971582107503E9 ; 1.3725511629180312E9 ; 2.998394486727783E10 ; 0.0
34 ; 4.3730038565549836E7 ; 1.204041253272174E9 ; 1.4162447441126494E9 ; 3.118794202548858E10 ; 0.0
35 ; 4.3774100624406956E7 ; 1.2040862921494927E9 ; 1.4599747826781993E9 ; 3.2391983278760754E10 ; 0.0
36 ; 4.381401997717558E7 ; 1.2041322168343697E9 ; 1.5037488833026063E9 ; 3.3596069570910248E10 ; 0.0
37 ; 4.3848817914708674E7 ; 1.2041789726325817E9 ; 1.5475629032797818E9 ; 3.480020178774461E10 ; 0.0
38 ; 4.388260349245484E7 ; 1.2042265080445313E9 ; 1.5914117211944904E9 ; 3.60043807603772E10 ; 0.0
39 ; 4.392439919693392E7 ; 1.2042747746316497E9 ; 1.6352943246869452E9 ; 3.720860726842173E10 ; 0.0
40 ; 4.395506785401425E7 ; 1.2043237268736606E9 ; 1.6792187238838792E9 ; 3.841288204305338E10 ; 0.0
41 ; 4.398738682207074E7 ; 1.2043733220207314E9 ; 1.7231737917378933E9 ; 3.961720576992704E10 ; 0.0
42 ; 4.4020760259267546E7 ; 1.204423519943748E9 ; 1.7671611785599642E9 ; 4.082157909194777E10 ; 0.0
43 ; 4.4046069406837836E7 ; 1.2044742829852335E9 ; 1.8111819388192317E9 ; 4.202600261189152E10 ; 0.0
44 ; 4.407108455527359E7 ; 1.2045255758128734E9 ; 1.8552280082260697E9 ; 4.3230476894876755E10 ; 0.0
45 ; 4.409132055732088E7 ; 1.204577365277099E9 ; 1.8992990927813432E9 ; 4.443500247068963E10 ; 0.0
46 ; 4.411266501199898E7 ; 1.2046296202737865E9 ; 1.943390413338664E9 ; 4.563957983596673E10 ; 0.0
47 ; 4.4137500579344004E7 ; 1.20468231161281E9 ; 1.987503078350663E9 ; 4.684420945624052E10 ; 0.0
48 ; 4.415294907623102E7 ; 1.204735411892903E9 ; 2.031640578930007E9 ; 4.8048891767853325E10 ; 0.0
49 ; 4.417334380093598E7 ; 1.2047888953831034E9 ; 2.075793528006238E9 ; 4.925362717974623E10 ; 0.0
50 ; 4.418359666134453E7 ; 1.2048427379108627E9 ; 2.119966871807174E9 ; 5.045841607512933E10 ; 0.0
51 ; 4.420021546535725E7 ; 1.204896916756806E9 ; 2.1641504684685183E9 ; 5.16632588130402E10 ; 0.0
52 ; 4.420663474576658E7 ; 1.2049514105560064E9 ; 2.2083506839338756E9 ; 5.2868155729797005E10 ; 0.0
53 ; 4.422742780818781E7 ; 1.205006199205594E9 ; 2.252557318679642E9 ; 5.407310714035301E10 ; 0.0
54 ; 4.423709548775309E7 ; 1.2050612637784498E9 ; 2.29678474648783E9 ; 5.527811333955861E10 ; 0.0
55 ; 4.424095627828867E7 ; 1.205116586442716E9 ; 2.341021841975583E9 ; 5.648317460333706E10 ; 0.0
56 ; 4.42483747097519E7 ; 1.205172150386826E9 ; 2.385262798253872E9 ; 5.768829118977978E10 ; 0.0
57 ; 4.4261196482975185E7 ; 1.2052279397497535E9 ; 2.429511172963624E9 ; 5.88934633401666E10 ; 0.0
58 ; 4.427441432389227E7 ; 1.2052839395561652E9 ; 2.473772369446599E9 ; 6.009869127991636E10 ; 0.0
59 ; 4.4283461185191475E7 ; 1.2053401356561823E9 ; 2.518046783770491E9 ; 6.130397521947253E10 ; 0.0
60 ; 4.4288900726647586E7 ; 1.2053965146694455E9 ; 2.5623302449556828E9 ; 6.250931535512871E10 ; 0.0
61 ; 4.4298380656537235E7 ; 1.2054530639331987E9 ; 2.60661914568233E9 ; 6.371471186979816E10 ; 0.0
62 ; 4.430040209502704E7 ; 1.2055097714541142E9 ; 2.650917526338867E9 ; 6.492016493373135E10 ; 0.0
63 ; 4.431377944849661E7 ; 1.2055666258635976E9 ; 2.695217928433894E9 ; 6.612567470518547E10 ; 0.0
64 ; 4.4322880007833764E7 ; 1.2056236163763232E9 ; 2.739531707882391E9 ; 6.7331241331049065E10 ; 0.0
65 ; 4.432833094284468E7 ; 1.2056807327517676E9 ; 2.783854587890225E9 ; 6.8536864947425385E10 ; 0.0
66 ; 4.4330971689583935E7 ; 1.2057379652585175E9 ; 2.82818291883307E9 ; 6.974254568017715E10 ; 0.0
67 ; 4.43369244390978E7 ; 1.2057953046411533E9 ; 2.8725138905226536E9 ; 7.094828364543567E10 ; 0.0
68 ; 4.434075759477753E7 ; 1.2058527420895102E9 ; 2.9168508149617515E9 ; 7.215407895007683E10 ; 0.0
69 ; 4.43451822525357E7 ; 1.205910269210144E9 ; 2.961191572556529E9 ; 7.335993169216634E10 ; 0.0
70 ; 4.434973459438929E7 ; 1.205967877999833E9 ; 3.005536754809065E9 ; 7.456584196137648E10 ; 0.0
71 ; 4.436000665273228E7 ; 1.2060255608209634E9 ; 3.0498864894034543E9 ; 7.577180983937631E10 ; 0.0
72 ; 4.4356438174456716E7 ; 1.2060833103786573E9 ; 3.0942464960561867E9 ; 7.697783540019728E10 ; 0.0
73 ; 4.436375820707856E7 ; 1.2061411196995125E9 ; 3.1386029342306433E9 ; 7.818391871057594E10 ; 0.0
74 ; 4.436179653773784E7 ; 1.206198982111828E9 ; 3.1829666924377217E9 ; 7.939005983027545E10 ; 0.0
75 ; 4.4363650984115325E7 ; 1.20625689122721E9 ; 3.2273284889754596E9 ; 8.059625881238728E10 ; 0.0
76 ; 4.4368883179515876E7 ; 1.2063148409234505E9 ; 3.2716921399595747E9 ; 8.180251570361449E10 ; 0.0
77 ; 4.437382042954751E7 ; 1.206372825328583E9 ; 3.3160610231390905E9 ; 8.300883054453793E10 ; 0.0
78 ; 4.435327110050062E7 ; 1.2064308388060305E9 ; 3.360434843568638E9 ; 8.421520336986652E10 ; 0.0
79 ; 4.434322010333661E7 ; 1.2064888759407618E9 ; 3.4047881146691384E9 ; 8.542163420867255E10 ; 0.0
80 ; 4.4333029412325166E7 ; 1.2065469315263803E9 ; 3.4491313347724752E9 ; 8.662812308461331E10 ; 0.0
81 ; 4.431679771546066E7 ; 1.2066050005530815E9 ; 3.4934643641848006E9 ; 8.78346700161397E10 ; 0.0
82 ; 4.430341825526332E7 ; 1.2066630781964095E9 ; 3.5377811619002614E9 ; 8.904127501669278E10 ; 0.0
83 ; 4.4290001815966845E7 ; 1.2067211598067567E9 ; 3.5820845801555247E9 ; 9.024793809488919E10 ; 0.0
84 ; 4.427835058428867E7 ; 1.2067792408995547E9 ; 3.626374581971492E9 ; 9.145465925469595E10 ; 0.0
85 ; 4.4257177689757705E7 ; 1.2068373171461022E9 ; 3.6706529325557804E9 ; 9.26614384955955E10 ; 0.0
86 ; 4.424407758384676E7 ; 1.206895384364986E9 ; 3.714910110245538E9 ; 9.386827581274161E10 ; 0.0
87 ; 4.423153691184582E7 ; 1.206953438514054E9 ; 3.759154187829385E9 ; 9.50751711971066E10 ; 0.0
88 ; 4.4208436041918434E7 ; 1.2070114756828995E9 ; 3.8033857247412305E9 ; 9.628212463562065E10 ; 0.0
89 ; 4.4191237531222366E7 ; 1.2070694920858195E9 ; 3.847594160783149E9 ; 9.748913611130356E10 ; 0.0
90 ; 4.4170470017466865E7 ; 1.2071274840552158E9 ; 3.891785398314371E9 ; 9.869620560338937E10 ; 0.0
91 ; 4.415549232873992E7 ; 1.2071854480354087E9 ; 3.935955868331838E9 ; 9.99033330874446E10 ; 0.0
92 ; 4.414101574662259E7 ; 1.2072433805768301E9 ; 3.9801113606605783E9 ; 1.0111051853548001E11 ; 0.0
93 ; 4.412244477817668E7 ; 1.207301278330576E9 ; 4.024252376407201E9 ; 1.0231776191605684E11 ; 0.0
94 ; 4.4096186763707004E7 ; 1.2073591380432878E9 ; 4.0683748211853776E9 ; 1.0352506319438742E11 ; 0.0
95 ; 4.408332287841633E7 ; 1.2074169565523465E9 ; 4.1124710079490848E9 ; 1.0473242233243071E11 ; 0.0
96 ; 4.4058730310914025E7 ; 1.2074747307813518E9 ; 4.1565543308275013E9 ; 1.0593983928898306E11 ; 0.0
97 ; 4.404290543145242E7 ; 1.2075324577358718E9 ; 4.2006130611384153E9 ; 1.0714731401976442E11 ; 0.0
98 ; 4.401737956585582E7 ; 1.2075901344994447E9 ; 4.2446559665698676E9 ; 1.0835484647750029E11 ; 0.0
99 ; 4.400035762540601E7 ; 1.2076477582298133E9 ; 4.2886733461357236E9 ; 1.0956243661199974E11 ; 0.0
100 ; 4.398052218838389E7 ; 1.2077053261553793E9 ; 4.332673703761129E9 ; 1.1077008437022955E11 ; 0.0
101 ; 4.3960157107427135E7 ; 1.2077628355718622E9 ; 4.376654225949513E9 ; 1.1197778969638493E11 ; 0.0
102 ; 4.392978418253772E7 ; 1.2078202838391514E9 ; 4.420614383056941E9 ; 1.131855525319568E11 ; 0.0
103 ; 4.391093245093634E7 ; 1.207877668378335E9 ; 4.464544167239479E9 ; 1.1439337281579596E11 ; 0.0
104 ; 4.388718468431373E7 ; 1.2079349866688962E9 ; 4.508455099690415E9 ; 1.156012504841743E11 ; 0.0
105 ; 4.3862531334914476E7 ; 1.2079922362460718E9 ; 4.552342284374729E9 ; 1.168091854708432E11 ; 0.0
106 ; 4.384001912311287E7 ; 1.2080494146983504E9 ; 4.596204815709643E9 ; 1.1801717770708928E11 ; 0.0
107 ; 4.3815516388219416E7 ; 1.2081065196651146E9 ; 4.640044834832756E9 ; 1.1922522712178763E11 ; 0.0
108 ; 4.379083640338908E7 ; 1.2081635488344107E9 ; 4.683860351220976E9 ; 1.2043333364145274E11 ; 0.0
109 ; 4.376116396385352E7 ; 1.2082204999408383E9 ; 4.727651187624365E9 ; 1.2164149719028716E11 ; 0.0
110 ; 4.372705736581833E7 ; 1.2082773707635567E9 ; 4.771412351588219E9 ; 1.22849717690228E11 ; 0.0
111 ; 4.3706744462690085E7 ; 1.2083341591243968E9 ; 4.815139408954037E9 ; 1.2405799506099155E11 ; 0.0
112 ; 4.3679160396464854E7 ; 1.208390862886073E9 ; 4.858846153416727E9 ; 1.2526632922011594E11 ; 0.0
113 ; 4.364664436031026E7 ; 1.2084474799504929E9 ; 4.902525313813192E9 ; 1.2647472008300201E11 ; 0.0
114 ; 4.362095155392951E7 ; 1.2085040082571507E9 ; 4.946171958173503E9 ; 1.2768316756295251E11 ; 0.0
115 ; 4.359867493891027E7 ; 1.2085604457816105E9 ; 4.989792909727432E9 ; 1.2889167157120967E11 ; 0.0
116 ; 4.3567598946170405E7 ; 1.208616790534063E9 ; 5.033391584666343E9 ; 1.3010023201699129E11 ; 0.0
117 ; 4.353952845524569E7 ; 1.2086730405579603E9 ; 5.076959183612514E9 ; 1.3130884880752534E11 ; 0.0
118 ; 4.350105444460827E7 ; 1.2087291939287176E9 ; 5.1204987120677595E9 ; 1.325175218480833E11 ; 0.0
119 ; 4.347692597373443E7 ; 1.2087852487524836E9 ; 5.163999766512368E9 ; 1.3372625104201201E11 ; 0.0
120 ; 4.344343531749654E7 ; 1.2088412031649709E9 ; 5.207476692486103E9 ; 1.349350362907645E11 ; 0.0
121 ; 4.341452152328813E7 ; 1.2088970553303463E9 ; 5.250920127803599E9 ; 1.3614387749392947E11 ; 0.0
122 ; 4.338272833618536E7 ; 1.208952803440176E9 ; 5.294334649326887E9 ; 1.3735277454925983E11 ; 0.0
123 ; 4.335068799042483E7 ; 1.2090084457124228E9 ; 5.337717377663073E9 ; 1.385617273527E11 ; 0.0
124 ; 4.331342975966233E7 ; 1.2090639803904927E9 ; 5.381068065653498E9 ; 1.3977073579841245E11 ; 0.0
125 ; 4.328409700161043E7 ; 1.209119405742329E9 ; 5.42438149541316E9 ; 1.4097979977880295E11 ; 0.0
126 ; 4.325375393720686E7 ; 1.2091747200595489E9 ; 5.467665592414771E9 ; 1.421889191845453E11 ; 0.0
127 ; 4.3212936706868865E7 ; 1.2092299216566231E9 ; 5.510919346351978E9 ; 1.4339809390460483E11 ; 0.0
128 ; 4.318513118685081E7 ; 1.2092850088700945E9 ; 5.554132283058847E9 ; 1.4460732382626144E11 ; 0.0
129 ; 4.314339018437493E7 ; 1.2093399800578337E9 ; 5.597317414245698E9 ; 1.4581660883513153E11 ; 0.0
130 ; 4.310320899062568E7 ; 1.20939483359833E9 ; 5.640460804430073E9 ; 1.4702594881518936E11 ; 0.0
131 ; 4.3052681935095675E7 ; 1.2094495678900163E9 ; 5.683564013420698E9 ; 1.482353436487877E11 ; 0.0
132 ; 4.300830077823651E7 ; 1.2095041813506255E9 ; 5.726616695355794E9 ; 1.494447932166777E11 ; 0.0
133 ; 4.2957635422525175E7 ; 1.2095586724165764E9 ; 5.76962499613403E9 ; 1.5065429739802832E11 ; 0.0
134 ; 4.2912053217826225E7 ; 1.209613039542389E9 ; 5.812582631556556E9 ; 1.518638560704449E11 ; 0.0
135 ; 4.2858597350618646E7 ; 1.2096672812001252E9 ; 5.855494684774382E9 ; 1.5307346910998727E11 ; 0.0
136 ; 4.281067570088641E7 ; 1.2097213958788579E9 ; 5.898353282125E9 ; 1.542831363911874E11 ; 0.0
137 ; 4.2755582988317795E7 ; 1.2097753820841608E9 ; 5.941163957825887E9 ; 1.5549285778706625E11 ; 0.0
138 ; 4.270538355424552E7 ; 1.2098292383376245E9 ; 5.983919540814204E9 ; 1.5670263316915042E11 ; 0.0
139 ; 4.265572598771999E7 ; 1.2098829631763926E9 ; 6.02662492436845E9 ; 1.5791246240748804E11 ; 0.0
140 ; 4.260346893625544E7 ; 1.2099365551527195E9 ; 6.06928065035617E9 ; 1.5912234537066443E11 ; 0.0
141 ; 4.25492667753861E7 ; 1.209990012833547E9 ; 6.111884119292425E9 ; 1.6033228192581714E11 ; 0.0
142 ; 4.249307980347922E7 ; 1.2100433348001022E9 ; 6.154433386067811E9 ; 1.615422719386507E11 ; 0.0
143 ; 4.2438453416775E7 ; 1.2100965196475086E9 ; 6.19692646587129E9 ; 1.627523152734508E11 ; 0.0
144 ; 4.2380893929689415E7 ; 1.2101495659844203E9 ; 6.239364919288065E9 ; 1.6396241179309833E11 ; 0.0
145 ; 4.2349304768723026E7 ; 1.210202472432666E9 ; 6.281745813217754E9 ; 1.6517256135908273E11 ; 0.0
146 ; 4.2308229456872724E7 ; 1.2102552376269155E9 ; 6.324095117986478E9 ; 1.663827638315154E11 ; 0.0
147 ; 4.2268469801903896E7 ; 1.2103078602143526E9 ; 6.366403347443351E9 ; 1.6759301906914233E11 ; 0.0
148 ; 4.222474077209521E7 ; 1.21036033885437E9 ; 6.4086718172452545E9 ; 1.688033269293567E11 ; 0.0
149 ; 4.219629477145155E7 ; 1.210412672218272E9 ; 6.45089655801735E9 ; 1.7001368726821106E11 ; 0.0
150 ; 4.2158175432027444E7 ; 1.2104648589889917E9 ; 6.493092852788802E9 ; 1.7122409994042932E11 ; 0.0
151 ; 4.211936927118392E7 ; 1.2105168978608222E9 ; 6.53525102822083E9 ; 1.724345647994183E11 ; 0.0
152 ; 4.207532158811572E7 ; 1.2105687875391555E9 ; 6.577370397492014E9 ; 1.736450816972791E11 ; 0.0
153 ; 4.203867325535947E7 ; 1.2106205267402344E9 ; 6.61944571908013E9 ; 1.7485565048481827E11 ; 0.0
154 ; 4.199242265035038E7 ; 1.210672114190917E9 ; 6.661484392335489E9 ; 1.760662710115585E11 ; 0.0
155 ; 4.195811258732072E7 ; 1.2107235486284478E9 ; 6.70347681498584E9 ; 1.7727694312574942E11 ; 0.0
156 ; 4.191559427636071E7 ; 1.2107748288002381E9 ; 6.74543492757316E9 ; 1.7848766667437787E11 ; 0.0
157 ; 4.188107398096794E7 ; 1.2108259534636605E9 ; 6.787350521849521E9 ; 1.796984415031781E11 ; 0.0
158 ; 4.183576135148815E7 ; 1.2108769213858461E9 ; 6.829231595830488E9 ; 1.8090926745664175E11 ; 0.0
159 ; 4.179820055760867E7 ; 1.2109277313434935E9 ; 6.871067357181976E9 ; 1.821201443780276E11 ; 0.0
160 ; 4.1757715839063525E7 ; 1.2109783821226857E9 ; 6.912865557739585E9 ; 1.833310721093711E11 ; 0.0
161 ; 4.172016398027563E7 ; 1.2110288725187118E9 ; 6.954623273578649E9 ; 1.8454205049149377E11 ; 0.0
162 ; 4.167680618635258E7 ; 1.2110792013359008E9 ; 6.996343437558924E9 ; 1.8575307936401248E11 ; 0.0
163 ; 4.163376401723967E7 ; 1.2111293673874576E9 ; 7.038020243745276E9 ; 1.869641585653484E11 ; 0.0
164 ; 4.159605361348189E7 ; 1.2111793694953074E9 ; 7.079654007762516E9 ; 1.8817528793273584E11 ; 0.0
165 ; 4.1552942235917345E7 ; 1.2112292064899487E9 ; 7.121250061375998E9 ; 1.8938646730223114E11 ; 0.0
166 ; 4.151392887693411E7 ; 1.211278877210308E9 ; 7.162803003611915E9 ; 1.905976965087211E11 ; 0.0
167 ; 4.146800947820528E7 ; 1.211328380503605E9 ; 7.204316932488849E9 ; 1.918089753859314E11 ; 0.0
168 ; 4.142496667568904E7 ; 1.2113777152252188E9 ; 7.245784941967054E9 ; 1.93020303766435E11 ; 0.0
169 ; 4.137571781604414E7 ; 1.2114268802385638E9 ; 7.287209908642743E9 ; 1.9423168148166022E11 ; 0.0
170 ; 4.1343711987992406E7 ; 1.2114758744149675E9 ; 7.328585626458787E9 ; 1.9544310836189877E11 ; 0.0
171 ; 4.129439583812217E7 ; 1.211524696633555E9 ; 7.369929338446779E9 ; 1.9665458423631375E11 ; 0.0
172 ; 4.125465887902016E7 ; 1.2115733457811365E9 ; 7.411223734284902E9 ; 1.978661089329473E11 ; 0.0
173 ; 4.121520710748442E7 ; 1.211621820752102E9 ; 7.452478393163921E9 ; 1.9907768227872842E11 ; 0.0
174 ; 4.118968558403225E7 ; 1.211670120448317E9 ; 7.493693600271406E9 ; 2.0028930409948053E11 ; 0.0
175 ; 4.116287094804283E7 ; 1.2117182437790263E9 ; 7.534883285855438E9 ; 2.0150097421992883E11 ; 0.0
176 ; 4.11340102841208E7 ; 1.2117661896607568E9 ; 7.576046156803481E9 ; 2.0271269246370786E11 ; 0.0
177 ; 4.111177989475576E7 ; 1.2118139570172288E9 ; 7.617180167087602E9 ; 2.0392445865336862E11 ; 0.0
178 ; 4.108550678703188E7 ; 1.2118615447792683E9 ; 7.658291946982357E9 ; 2.0513627261038586E11 ; 0.0
179 ; 4.106127007100484E7 ; 1.2119089518847237E9 ; 7.699377453769389E9 ; 2.0634813415516513E11 ; 0.0
180 ; 4.103182214134873E7 ; 1.2119561772783856E9 ; 7.740438723840394E9 ; 2.0756004310704987E11 ; 0.0
181 ; 4.10134249919723E7 ; 1.2120032199119096E9 ; 7.781470545981743E9 ; 2.0877199928432825E11 ; 0.0
182 ; 4.097504995105545E7 ; 1.2120500787437425E9 ; 7.822483970973715E9 ; 2.0998400250424014E11 ; 0.0
183 ; 4.095691599835643E7 ; 1.2120967527390528E9 ; 7.86345902092477E9 ; 2.111960525829839E11 ; 0.0
184 ; 4.0936597057534516E7 ; 1.2121432408696613E9 ; 7.904415936923127E9 ; 2.1240814933572293E11 ; 0.0
185 ; 4.0905541517929144E7 ; 1.212189542113975E9 ; 7.945352533980661E9 ; 2.136202925765926E11 ; 0.0
186 ; 4.0884435889777385E7 ; 1.212235655456928E9 ; 7.98625807549859E9 ; 2.1483248211870657E11 ; 0.0
187 ; 4.085585270013457E7 ; 1.2122815798899179E9 ; 8.027142511388368E9 ; 2.160447177741635E11 ; 0.0
188 ; 4.0832972144150525E7 ; 1.2123273144107494E9 ; 8.067998364088502E9 ; 2.1725699935405344E11 ; 0.0
189 ; 4.0806085910644926E7 ; 1.212372858023581E9 ; 8.108831336232653E9 ; 2.1846932666846417E11 ; 0.0
190 ; 4.077333234046317E7 ; 1.2124182097388685E9 ; 8.149637422143297E9 ; 2.1968169952648776E11 ; 0.0
191 ; 4.075527821907596E7 ; 1.212463368573317E9 ; 8.190410754483761E9 ; 2.2089411773622662E11 ; 0.0
192 ; 4.073256662818095E7 ; 1.2125083335498307E9 ; 8.231166032702837E9 ; 2.2210658110479993E11 ; 0.0
193 ; 4.070246002516878E7 ; 1.2125531036974669E9 ; 8.2718985993310175E9 ; 2.2331908943834976E11 ; 0.0
194 ; 4.06753261530328E7 ; 1.2125976780513914E9 ; 8.312601059356186E9 ; 2.2453164254204724E11 ; 0.0
195 ; 4.065083735714536E7 ; 1.2126420556528337E9 ; 8.353276385509219E9 ; 2.2574424022009863E11 ; 0.0
196 ; 4.0630082250071354E7 ; 1.2126862355490491E9 ; 8.3939272228663645E9 ; 2.2695688227575146E11 ; 0.0
