CSV File for the Network on Day 205
1 - Minute m 
2 - Power Consumed at minute m 
3 - Power Produced at minute m 
4 - Energy Consumed since the beginning of the day 
5 - Energy Produced since the beginning of the day 
6 - Energy Lost since the beginning of the day 
 
0 ; 2844240.8710167077 ; 6.332903291532826E8 ; 0.0 ; 0.0 ; 0.0
1 ; 2885280.207492152 ; 6.341974212239733E8 ; 2844240.8710167077 ; 6.332903291532826E8 ; 0.0
2 ; 2941333.557997286 ; 6.369582122640412E8 ; 5729521.0785088595 ; 1.267487750377256E9 ; 0.0
3 ; 2989162.6670530085 ; 6.415727450228283E8 ; 8670854.636506146 ; 1.904445962641297E9 ; 0.0
4 ; 3044671.423600899 ; 6.480410585643232E8 ; 1.1660017303559154E7 ; 2.5460187076641254E9 ; 0.0
5 ; 3125509.3045017775 ; 6.563631878116381E8 ; 1.4704688727160053E7 ; 3.194059766228449E9 ; 0.0
6 ; 3216450.693079805 ; 6.665391631216674E8 ; 1.783019803166183E7 ; 3.8504229540400867E9 ; 0.0
7 ; 3347927.8773754383 ; 6.785690099013174E8 ; 2.1046648724741638E7 ; 4.516962117161755E9 ; 0.0
8 ; 3542866.207490499 ; 6.924527482761894E8 ; 2.4394576602117077E7 ; 5.195531127063072E9 ; 0.0
9 ; 3825726.03141684 ; 7.081903928215315E8 ; 2.7937442809607577E7 ; 5.887983875339262E9 ; 0.0
10 ; 4271194.372445496 ; 7.25781952363725E8 ; 3.1763168841024417E7 ; 6.596174268160793E9 ; 0.0
11 ; 4962864.329378509 ; 7.452274298585688E8 ; 3.6034363213469915E7 ; 7.321956220524518E9 ; 0.0
12 ; 6076052.259049845 ; 7.665268223502635E8 ; 4.099722754284842E7 ; 8.067183650383087E9 ; 0.0
13 ; 7147608.083576564 ; 7.896801210124284E8 ; 4.707327980189827E7 ; 8.83371047273335E9 ; 0.0
14 ; 7280269.520819318 ; 8.146873112698157E8 ; 5.422088788547483E7 ; 9.623390593745779E9 ; 0.0
15 ; 7330585.942842594 ; 8.415483729968233E8 ; 6.150115740629415E7 ; 1.0438077905015594E10 ; 0.0
16 ; 7383752.557519108 ; 8.702632807865454E8 ; 6.883174334913674E7 ; 1.1279626278012417E10 ; 0.0
17 ; 7443170.592475998 ; 9.008320042820877E8 ; 7.621549590665585E7 ; 1.2149889558798962E10 ; 0.0
18 ; 7500477.07888045 ; 9.332545085603375E8 ; 8.365866649913184E7 ; 1.3050721563081049E10 ; 0.0
19 ; 7560747.034021625 ; 9.675307545573066E8 ; 9.115914357801229E7 ; 1.3983976071641386E10 ; 0.0
20 ; 7614734.067476882 ; 1.0036606995236528E9 ; 9.871989061203392E7 ; 1.4951506826198692E10 ; 0.0
21 ; 7670311.112747552 ; 1.04164429749897E9 ; 1.063346246795108E8 ; 1.5955167525722345E10 ; 0.0
22 ; 7720161.151717186 ; 1.0814814997938728E9 ; 1.1400493579225835E8 ; 1.6996811823221315E10 ; 0.0
23 ; 7790642.166439075 ; 1.1231722554697428E9 ; 1.2172509694397554E8 ; 1.807829332301519E10 ; 0.0
24 ; 7842086.2905984195 ; 1.1667165118071148E9 ; 1.2951573911041461E8 ; 1.9201465578484932E10 ; 0.0
25 ; 7906402.080415459 ; 1.204242460144119E9 ; 1.3735782540101302E8 ; 2.0368182090292046E10 ; 0.0
26 ; 7953391.329528872 ; 1.2042713325218935E9 ; 1.4526422748142847E8 ; 2.1572424550436165E10 ; 0.0
27 ; 8020145.7158367485 ; 1.2043016892279396E9 ; 1.5321761881095734E8 ; 2.2776695882958057E10 ; 0.0
28 ; 8064546.372774817 ; 1.2043334746372006E9 ; 1.6123776452679408E8 ; 2.3980997572185997E10 ; 0.0
29 ; 8125121.047026159 ; 1.2043666332963998E9 ; 1.693023108995689E8 ; 2.5185331046823196E10 ; 0.0
30 ; 8187665.736843763 ; 1.2044011102124188E9 ; 1.7742743194659504E8 ; 2.6389697680119595E10 ; 0.0
31 ; 8238234.5808064025 ; 1.204436851104262E9 ; 1.856150976834388E8 ; 2.7594098790332012E10 ; 0.0
32 ; 8284456.363654856 ; 1.2044738026195226E9 ; 1.938533322642452E8 ; 2.8798535641436275E10 ; 0.0
33 ; 8343314.644619735 ; 1.204511912516899E9 ; 2.0213778862790006E8 ; 3.0003009444055798E10 ; 0.0
34 ; 8385185.718839696 ; 1.2045511298168182E9 ; 2.104811032725198E8 ; 3.1207521356572697E10 ; 0.0
35 ; 8436326.876582865 ; 1.204591404922532E9 ; 2.188662889913595E8 ; 3.2412072486389515E10 ; 0.0
36 ; 8487268.588358723 ; 1.2046326897142868E9 ; 2.2730261586794236E8 ; 3.3616663891312046E10 ; 0.0
37 ; 8534513.6530643 ; 1.20467493761924E9 ; 2.357898844563011E8 ; 3.482129658102634E10 ; 0.0
38 ; 8585633.16131176 ; 1.2047181036598167E9 ; 2.443243981093654E8 ; 3.602597151864558E10 ; 0.0
39 ; 8628612.34163356 ; 1.2047621444831288E9 ; 2.5291003127067715E8 ; 3.723068962230539E10 ; 0.0
40 ; 8672104.976829415 ; 1.2048070183739648E9 ; 2.615386436123107E8 ; 3.843545176678852E10 ; 0.0
41 ; 8707285.846101785 ; 1.204852685253705E9 ; 2.702107485891401E8 ; 3.964025878516248E10 ; 0.0
42 ; 8758411.260426054 ; 1.204899106667335E9 ; 2.789180344352419E8 ; 4.084511147041619E10 ; 0.0
43 ; 8790903.893970074 ; 1.204946245760541E9 ; 2.876764456956679E8 ; 4.205001057708353E10 ; 0.0
44 ; 8825118.010510828 ; 1.2049940672486784E9 ; 2.96467349589638E8 ; 4.325495682284407E10 ; 0.0
45 ; 8865948.321786692 ; 1.2050425373791974E9 ; 3.052924676001488E8 ; 4.445995089009275E10 ; 0.0
46 ; 8898285.596966412 ; 1.2050916238889403E9 ; 3.141584159219355E8 ; 4.566499342747195E10 ; 0.0
47 ; 8923871.879396139 ; 1.205141295957529E9 ; 3.230567015189019E8 ; 4.6870085051360886E10 ; 0.0
48 ; 8950851.785897162 ; 1.2051915241579094E9 ; 3.31980573398298E8 ; 4.807522634731841E10 ; 0.0
49 ; 8977393.068958053 ; 1.2052422804049602E9 ; 3.4093142518419516E8 ; 4.928041787147632E10 ; 0.0
50 ; 9006768.1635418 ; 1.2052935379029386E9 ; 3.499088182531532E8 ; 5.048566015188128E10 ; 0.0
51 ; 9033697.896268029 ; 1.205345271092413E9 ; 3.58915586416695E8 ; 5.169095368978422E10 ; 0.0
52 ; 9057287.027482718 ; 1.2053974555972235E9 ; 3.67949284312963E8 ; 5.289629896087663E10 ; 0.0
53 ; 9079928.192738619 ; 1.205450068171909E9 ; 3.7700657134044576E8 ; 5.4101696416473854E10 ; 0.0
54 ; 9097632.631471414 ; 1.2055030866499677E9 ; 3.8608649953318435E8 ; 5.530714648464576E10 ; 0.0
55 ; 9125705.41336018 ; 1.2055564898932285E9 ; 3.9518413216465575E8 ; 5.651264957129573E10 ; 0.0
56 ; 9143296.90891251 ; 1.2056102577425656E9 ; 4.043098375780159E8 ; 5.771820606118896E10 ; 0.0
57 ; 9169000.099462254 ; 1.2056643709701185E9 ; 4.1345313448692846E8 ; 5.8923816318931526E10 ; 0.0
58 ; 9182889.206480918 ; 1.205718811233148E9 ; 4.2262213458639073E8 ; 6.012948068990164E10 ; 0.0
59 ; 9209087.338838076 ; 1.2057735610296104E9 ; 4.3180502379287165E8 ; 6.133519950113479E10 ; 0.0
60 ; 9236706.090950651 ; 1.2058286036555037E9 ; 4.4101411113170975E8 ; 6.25409730621644E10 ; 0.0
61 ; 9253467.588860674 ; 1.205883923164018E9 ; 4.502508172226604E8 ; 6.37468016658199E10 ; 0.0
62 ; 9275496.405880736 ; 1.2059395043264885E9 ; 4.595042848115211E8 ; 6.495268558898392E10 ; 0.0
63 ; 9293813.859275948 ; 1.2059953325951483E9 ; 4.6877978121740186E8 ; 6.615862509331041E10 ; 0.0
64 ; 9310616.39164569 ; 1.2060513940676448E9 ; 4.780735950766778E8 ; 6.7364620425905556E10 ; 0.0
65 ; 9334282.90009325 ; 1.206107675453293E9 ; 4.8738421146832347E8 ; 6.85706718199732E10 ; 0.0
66 ; 9354733.308190815 ; 1.20616416404101E9 ; 4.967184943684167E8 ; 6.97767794954265E10 ; 0.0
67 ; 9369415.270407237 ; 1.2062208476688857E9 ; 5.0607322767660755E8 ; 7.098294365946751E10 ; 0.0
68 ; 9388912.809285335 ; 1.2062777146953313E9 ; 5.154426429470148E8 ; 7.21891645071364E10 ; 0.0
69 ; 9409384.611523915 ; 1.2063347539717407E9 ; 5.2483155575630015E8 ; 7.339544222183173E10 ; 0.0
70 ; 9430056.603804398 ; 1.2063919548166082E9 ; 5.342409403678241E8 ; 7.460177697580347E10 ; 0.0
71 ; 9443170.616677042 ; 1.2064493069910364E9 ; 5.436709969716284E8 ; 7.580816893062007E10 ; 0.0
72 ; 9469011.74444555 ; 1.206506800675572E9 ; 5.531141675883055E8 ; 7.701461823761111E10 ; 0.0
73 ; 9481712.110661417 ; 1.206564426448303E9 ; 5.62583179332751E8 ; 7.822112503828668E10 ; 0.0
74 ; 9499997.560108641 ; 1.2066221752641625E9 ; 5.720648914434124E8 ; 7.942768946473499E10 ; 0.0
75 ; 9516058.104450509 ; 1.2066800384353693E9 ; 5.815648890035211E8 ; 8.063431163999915E10 ; 0.0
76 ; 9527981.279294496 ; 1.206738007612953E9 ; 5.910809471079715E8 ; 8.184099167843451E10 ; 0.0
77 ; 9551814.61671133 ; 1.2067960747693045E9 ; 6.00608928387266E8 ; 8.304772968604745E10 ; 0.0
78 ; 9561684.157205872 ; 1.2068542321816945E9 ; 6.101607430039774E8 ; 8.425452576081676E10 ; 0.0
79 ; 9559498.969417801 ; 1.2069124724167128E9 ; 6.197224271611832E8 ; 8.546137999299846E10 ; 0.0
80 ; 9563149.816754341 ; 1.206970788315569E9 ; 6.29281926130601E8 ; 8.666829246541518E10 ; 0.0
81 ; 9561928.264242146 ; 1.207029172980218E9 ; 6.388450759473554E8 ; 8.787526325373074E10 ; 0.0
82 ; 9567439.772415303 ; 1.207087619760251E9 ; 6.484070042115976E8 ; 8.908229242671097E10 ; 0.0
83 ; 9572736.812957386 ; 1.2071461222405205E9 ; 6.579744439840128E8 ; 9.028938004647122E10 ; 0.0
84 ; 9569785.626521375 ; 1.2072046742294488E9 ; 6.675471807969702E8 ; 9.149652616871175E10 ; 0.0
85 ; 9572114.356860392 ; 1.2072632697479863E9 ; 6.771169664234916E8 ; 9.27037308429412E10 ; 0.0
86 ; 9573622.101138558 ; 1.2073219030191784E9 ; 6.86689080780352E8 ; 9.391099411268918E10 ; 0.0
87 ; 9579227.240794264 ; 1.2073805684583075E9 ; 6.962627028814906E8 ; 9.511831601570836E10 ; 0.0
88 ; 9575563.051852109 ; 1.2074392606635797E9 ; 7.058419301222849E8 ; 9.632569658416667E10 ; 0.0
89 ; 9578373.21684144 ; 1.207497974407318E9 ; 7.15417493174137E8 ; 9.753313584483025E10 ; 0.0
90 ; 9574894.70045882 ; 1.207556704627639E9 ; 7.249958663909785E8 ; 9.874063381923756E10 ; 0.0
91 ; 9574593.29879018 ; 1.2076154464205804E9 ; 7.345707610914372E8 ; 9.99481905238652E10 ; 0.0
92 ; 9575560.539472803 ; 1.2076741950326583E9 ; 7.441453543902274E8 ; 1.0115580597028578E11 ; 0.0
93 ; 9576248.374664139 ; 1.2077329458538222E9 ; 7.537209149297003E8 ; 1.0236348016531844E11 ; 0.0
94 ; 9576344.081495928 ; 1.2077916944107924E9 ; 7.632971633043644E8 ; 1.0357121311117226E11 ; 0.0
95 ; 9569736.11800427 ; 1.2078504363607516E9 ; 7.728735073858603E8 ; 1.0477900480558305E11 ; 0.0
96 ; 9571740.940594977 ; 1.2079091674853737E9 ; 7.824432435038646E8 ; 1.059868552419438E11 ; 0.0
97 ; 9570768.994764851 ; 1.207967883685169E9 ; 7.920149844444597E8 ; 1.0719476440942917E11 ; 0.0
98 ; 9567053.77943908 ; 1.2080265809741273E9 ; 8.015857534392245E8 ; 1.0840273229311433E11 ; 0.0
99 ; 9565031.176201101 ; 1.2080852554746442E9 ; 8.111528072186636E8 ; 1.0961075887408846E11 ; 0.0
100 ; 9560279.89025381 ; 1.2081439034127102E9 ; 8.207178383948647E8 ; 1.108188441295631E11 ; 0.0
101 ; 9554230.70317951 ; 1.2082025211133518E9 ; 8.302781182851185E8 ; 1.120269880329758E11 ; 0.0
102 ; 9551108.875579946 ; 1.2082611049963078E9 ; 8.398323489882979E8 ; 1.1323519055408916E11 ; 0.0
103 ; 9552776.115311533 ; 1.2083196515719278E9 ; 8.493834578638779E8 ; 1.1444345165908546E11 ; 0.0
104 ; 9547635.281873735 ; 1.208378157437282E9 ; 8.589362339791894E8 ; 1.156517713106574E11 ; 0.0
105 ; 9538833.122034356 ; 1.2084366192724676E9 ; 8.684838692610631E8 ; 1.1686014946809468E11 ; 0.0
106 ; 9534483.140771234 ; 1.208495033837103E9 ; 8.780227023830974E8 ; 1.1806858608736714E11 ; 0.0
107 ; 9539296.888362244 ; 1.2085533979669993E9 ; 8.875571855238687E8 ; 1.1927708112120424E11 ; 0.0
108 ; 9523073.817633716 ; 1.208611708570998E9 ; 8.97096482412231E8 ; 1.2048563451917123E11 ; 0.0
109 ; 9522641.056764986 ; 1.208669962627966E9 ; 9.066195562298647E8 ; 1.2169424622774223E11 ; 0.0
110 ; 9514864.832732284 ; 1.2087281571839395E9 ; 9.161421972866297E8 ; 1.229029161903702E11 ; 0.0
111 ; 9506704.127229596 ; 1.2087862893494115E9 ; 9.25657062119362E8 ; 1.2411164434755414E11 ; 0.0
112 ; 9507840.018816415 ; 1.208844356296747E9 ; 9.351637662465916E8 ; 1.2532043063690355E11 ; 0.0
113 ; 9499673.130862398 ; 1.2089023552577288E9 ; 9.44671606265408E8 ; 1.265292749932003E11 ; 0.0
114 ; 9481522.029744027 ; 1.2089602835212214E9 ; 9.541712793962704E8 ; 1.2773817734845804E11 ; 0.0
115 ; 9481146.223126607 ; 1.2090181384309459E9 ; 9.636528014260144E8 ; 1.2894713763197926E11 ; 0.0
116 ; 9476269.27843818 ; 1.2090759173833623E9 ; 9.731339476491411E8 ; 1.301561557704102E11 ; 0.0
117 ; 9465029.167162273 ; 1.2091336178256552E9 ; 9.826102169275793E8 ; 1.3136523168779356E11 ; 0.0
118 ; 9459164.427046705 ; 1.209191237253811E9 ; 9.920752460947416E8 ; 1.3257436530561922E11 ; 0.0
119 ; 9448995.762958363 ; 1.2092487732107882E9 ; 1.0015344105217882E9 ; 1.3378355654287303E11 ; 0.0
120 ; 9442574.153544355 ; 1.2093062232847748E9 ; 1.0109834062847466E9 ; 1.3499280531608382E11 ; 0.0
121 ; 9431048.093695076 ; 1.2093635851075227E9 ; 1.020425980438291E9 ; 1.3620211153936859E11 ; 0.0
122 ; 9418213.953125976 ; 1.209420856352765E9 ; 1.029857028531986E9 ; 1.3741147512447612E11 ; 0.0
123 ; 9411363.343765998 ; 1.209478034734701E9 ; 1.039275242485112E9 ; 1.386208959808289E11 ; 0.0
124 ; 9403946.741689386 ; 1.2095351180065546E9 ; 1.0486866058288779E9 ; 1.398303740155636E11 ; 0.0
125 ; 9395649.221514426 ; 1.2095921039591963E9 ; 1.0580905525705674E9 ; 1.4103990913357016E11 ; 0.0
126 ; 9380976.552519316 ; 1.209648990419829E9 ; 1.0674862017920818E9 ; 1.4224950123752936E11 ; 0.0
127 ; 9370428.284892159 ; 1.209705775250733E9 ; 1.0768671783446012E9 ; 1.434591502279492E11 ; 0.0
128 ; 9360675.262379572 ; 1.2097624563480654E9 ; 1.0862376066294932E9 ; 1.4466885600319992E11 ; 0.0
129 ; 9348495.831166897 ; 1.2098190316407175E9 ; 1.095598281891873E9 ; 1.4587861845954797E11 ; 0.0
130 ; 9330787.657524576 ; 1.2098754990892181E9 ; 1.1049467777230399E9 ; 1.470884374911887E11 ; 0.0
131 ; 9307098.788853064 ; 1.2099318566846879E9 ; 1.1142775653805645E9 ; 1.482983129902779E11 ; 0.0
132 ; 9282361.384150391 ; 1.2099881024478405E9 ; 1.1235846641694176E9 ; 1.495082448469626E11 ; 0.0
133 ; 9256422.728390178 ; 1.2100442344280248E9 ; 1.1328670255535681E9 ; 1.5071823294941043E11 ; 0.0
134 ; 9235380.164662113 ; 1.2101002507023115E9 ; 1.1421234482819583E9 ; 1.5192827718383847E11 ; 0.0
135 ; 9210353.040573634 ; 1.210156149374617E9 ; 1.1513588284466205E9 ; 1.5313837743454077E11 ; 0.0
136 ; 9184396.14562405 ; 1.2102119285748672E9 ; 1.160569181487194E9 ; 1.5434853358391537E11 ; 0.0
137 ; 9153351.28560938 ; 1.2102675864581952E9 ; 1.1697535776328182E9 ; 1.5555874551249023E11 ; 0.0
138 ; 9127278.342491768 ; 1.2103231212041745E9 ; 1.1789069289184277E9 ; 1.5676901309894843E11 ; 0.0
139 ; 9098638.259422958 ; 1.2103785310160847E9 ; 1.1880342072609196E9 ; 1.579793362201526E11 ; 0.0
140 ; 9069130.897963578 ; 1.2104338141202064E9 ; 1.1971328455203426E9 ; 1.5918971475116867E11 ; 0.0
141 ; 9043237.496518087 ; 1.2104889687651494E9 ; 1.206201976418306E9 ; 1.6040014856528888E11 ; 0.0
142 ; 9017501.680794742 ; 1.2105439932212055E9 ; 1.2152452139148242E9 ; 1.6161063753405402E11 ; 0.0
143 ; 8990568.64573395 ; 1.2105988857797294E9 ; 1.224262715595619E9 ; 1.628211815272752E11 ; 0.0
144 ; 8957455.746553631 ; 1.210653644752546E9 ; 1.2332532842413528E9 ; 1.6403178041305493E11 ; 0.0
145 ; 8950248.92626356 ; 1.2107082684713829E9 ; 1.2422107399879065E9 ; 1.6524243405780746E11 ; 0.0
146 ; 8942235.543765362 ; 1.2107627552873218E9 ; 1.25116098891417E9 ; 1.6645314232627884E11 ; 0.0
147 ; 8925914.700141119 ; 1.210817103570278E9 ; 1.2601032244579353E9 ; 1.6766390508156616E11 ; 0.0
148 ; 8914832.171243416 ; 1.2108713117084985E9 ; 1.2690291391580765E9 ; 1.6887472218513644E11 ; 0.0
149 ; 8900024.319706973 ; 1.2109253781080792E9 ; 1.27794397132932E9 ; 1.7008559349684494E11 ; 0.0
150 ; 8888564.427094404 ; 1.2109793011925035E9 ; 1.2868439956490269E9 ; 1.7129651887495303E11 ; 0.0
151 ; 8878854.277217826 ; 1.2110330794021995E9 ; 1.2957325600761213E9 ; 1.7250749817614554E11 ; 0.0
152 ; 8870489.101841088 ; 1.2110867111941137E9 ; 1.3046114143533392E9 ; 1.7371853125554773E11 ; 0.0
153 ; 8856953.074074127 ; 1.2111401950413022E9 ; 1.3134819034551802E9 ; 1.7492961796674185E11 ; 0.0
154 ; 8841008.275074176 ; 1.2111935294325378E9 ; 1.3223388565292542E9 ; 1.7614075816178314E11 ; 0.0
155 ; 8834052.499701582 ; 1.2112467128719344E9 ; 1.3311798648043284E9 ; 1.7735195169121567E11 ; 0.0
156 ; 8814658.81637264 ; 1.211299743878583E9 ; 1.34001391730403E9 ; 1.7856319840408762E11 ; 0.0
157 ; 8802792.550456917 ; 1.2113526209862058E9 ; 1.3488285761204026E9 ; 1.797744981479662E11 ; 0.0
158 ; 8796978.763327446 ; 1.2114053427428198E9 ; 1.3576313686708596E9 ; 1.809858507689524E11 ; 0.0
159 ; 8780718.572314244 ; 1.211457907710417E9 ; 1.366428347434187E9 ; 1.8219725611169522E11 ; 0.0
160 ; 8767503.561911514 ; 1.211510314464655E9 ; 1.3752090660065012E9 ; 1.8340871401940564E11 ; 0.0
161 ; 8755916.309340306 ; 1.2115625615945594E9 ; 1.3839765695684128E9 ; 1.846202243338703E11 ; 0.0
162 ; 8743818.626066523 ; 1.2116146477022395E9 ; 1.392732485877753E9 ; 1.8583178689546487E11 ; 0.0
163 ; 8736047.681038115 ; 1.2116665714026136E9 ; 1.4014763045038195E9 ; 1.870434015431671E11 ; 0.0
164 ; 8719369.146940632 ; 1.2117183313231435E9 ; 1.4102123521848576E9 ; 1.8825506811456973E11 ; 0.0
165 ; 8706682.22460745 ; 1.211769926103583E9 ; 1.4189317213317983E9 ; 1.8946678644589288E11 ; 0.0
166 ; 8694221.85869375 ; 1.2118213543957312E9 ; 1.4276384035564058E9 ; 1.9067855637199646E11 ; 0.0
167 ; 8682649.829493338 ; 1.2118726148631988E9 ; 1.4363326254150996E9 ; 1.9189037772639218E11 ; 0.0
168 ; 8668977.397152415 ; 1.211923706181182E9 ; 1.445015275244593E9 ; 1.9310225034125537E11 ; 0.0
169 ; 8659312.606008397 ; 1.2119746270362432E9 ; 1.4536842526417453E9 ; 1.9431417404743655E11 ; 0.0
170 ; 8646595.39048109 ; 1.2120253761261046E9 ; 1.4623435652477536E9 ; 1.955261486744728E11 ; 0.0
171 ; 8628080.036668798 ; 1.2120759521594434E9 ; 1.4709901606382346E9 ; 1.967381740505989E11 ; 0.0
172 ; 8618731.974629514 ; 1.2121263538556995E9 ; 1.4796182406749034E9 ; 1.9795025000275836E11 ; 0.0
173 ; 8605223.052132603 ; 1.2121765799448879E9 ; 1.4882369726495328E9 ; 1.9916237635661407E11 ; 0.0
174 ; 8597476.969711522 ; 1.2122266291674192E9 ; 1.4968421957016654E9 ; 2.0037455293655896E11 ; 0.0
175 ; 8587132.791224927 ; 1.2122765002739267E9 ; 1.505439672671377E9 ; 2.0158677956572638E11 ; 0.0
176 ; 8580986.263797015 ; 1.2123261920250978E9 ; 1.514026805462602E9 ; 2.027990560660003E11 ; 0.0
177 ; 8578239.982544906 ; 1.2123757031915154E9 ; 1.522607791726399E9 ; 2.040113822580254E11 ; 0.0
178 ; 8566237.867291924 ; 1.2124250325535016E9 ; 1.5311860317089438E9 ; 2.0522375796121692E11 ; 0.0
179 ; 8554345.77967105 ; 1.2124741789009702E9 ; 1.5397522695762358E9 ; 2.0643618299377042E11 ; 0.0
180 ; 8553229.412824389 ; 1.2125231410332808E9 ; 1.5483066153559067E9 ; 2.076486571726714E11 ; 0.0
181 ; 8541844.694829404 ; 1.2125719177591028E9 ; 1.556859844768731E9 ; 2.0886118031370468E11 ; 0.0
182 ; 8533773.557343218 ; 1.21262050789628E9 ; 1.5654016894635606E9 ; 2.1007375223146378E11 ; 0.0
183 ; 8520189.880860338 ; 1.2126689102717037E9 ; 1.5739354630209038E9 ; 2.1128637273936005E11 ; 0.0
184 ; 8514293.155683387 ; 1.2127171237211888E9 ; 1.5824556529017642E9 ; 2.1249904164963174E11 ; 0.0
185 ; 8507521.995769281 ; 1.2127651470893528E9 ; 1.5909699460574474E9 ; 2.1371175877335294E11 ; 0.0
186 ; 8495669.905152906 ; 1.212812979229503E9 ; 1.5994774680532167E9 ; 2.149245239204423E11 ; 0.0
187 ; 8487222.958991546 ; 1.2128606190035243E9 ; 1.6079731379583695E9 ; 2.1613733689967178E11 ; 0.0
188 ; 8485936.47059718 ; 1.2129080652817736E9 ; 1.616460360917361E9 ; 2.173501975186753E11 ; 0.0
189 ; 8465349.921355283 ; 1.2129553169429755E9 ; 1.6249462973879583E9 ; 2.1856310558395706E11 ; 0.0
190 ; 8465219.44196216 ; 1.2130023728741245E9 ; 1.6334116473093135E9 ; 2.1977606090090002E11 ; 0.0
191 ; 8455142.84421781 ; 1.213049231970388E9 ; 1.6418768667512758E9 ; 2.2098906327377414E11 ; 0.0
192 ; 8451148.269600103 ; 1.2130958931350157E9 ; 1.6503320095954936E9 ; 2.2220211250574454E11 ; 0.0
193 ; 8434163.819302443 ; 1.2131423552792492E9 ; 1.6587831578650937E9 ; 2.2341520839887955E11 ; 0.0
194 ; 8426241.018631117 ; 1.213188617322238E9 ; 1.6672173216843963E9 ; 2.2462835075415878E11 ; 0.0
195 ; 8422814.607973937 ; 1.213234678190955E9 ; 1.6756435627030275E9 ; 2.2584153937148102E11 ; 0.0
196 ; 8413227.03792442 ; 1.2132805368201184E9 ; 1.6840663773110015E9 ; 2.2705477404967197E11 ; 0.0
197 ; 8399105.253899284 ; 1.2133261921521153E9 ; 1.692479604348926E9 ; 2.282680545864921E11 ; 0.0
198 ; 8400641.551758017 ; 1.2133716431369267E9 ; 1.7008787096028254E9 ; 2.2948138077864423E11 ; 0.0
199 ; 8387563.727791639 ; 1.2134168887320557E9 ; 1.7092793511545835E9 ; 2.3069475242178116E11 ; 0.0
200 ; 8383231.4832444955 ; 1.2044975986527472E9 ; 1.717666914882375E9 ; 2.319081693105132E11 ; 0.0
201 ; 8371695.7522704005 ; 1.0816618791737692E9 ; 1.7260501463656194E9 ; 2.3311266690916595E11 ; 0.0
