CSV File for the Network on Day 61
1 - Minute m 
2 - Power Consumed at minute m 
3 - Power Produced at minute m 
4 - Energy Consumed since the beginning of the day 
5 - Energy Produced since the beginning of the day 
6 - Energy Lost since the beginning of the day 
 
0 ; 3.8444817575348094E7 ; 6.341128820434817E8 ; 0.0 ; 0.0 ; 0.0
1 ; 3.8476106807660766E7 ; 6.350226291482174E8 ; 3.8444817575348094E7 ; 6.341128820434817E8 ; 0.0
2 ; 3.8517460906161204E7 ; 6.377858565581203E8 ; 7.692092438300887E7 ; 1.269135511191699E9 ; 0.0
3 ; 3.856791812399237E7 ; 6.42402588309908E8 ; 1.1543838528917007E8 ; 1.9069213677498193E9 ; 0.0
4 ; 3.8619957558682546E7 ; 6.488728460844591E8 ; 1.5400630341316244E8 ; 2.549323956059727E9 ; 0.0
5 ; 3.869269424679403E7 ; 6.571966490404309E8 ; 1.9262626097184497E8 ; 3.198196802144186E9 ; 0.0
6 ; 3.877574180944885E7 ; 6.673740136632209E8 ; 2.3131895521863902E8 ; 3.855393451184617E9 ; 0.0
7 ; 3.890514171802499E7 ; 6.794049536319677E8 ; 2.7009469702808785E8 ; 4.522767464847837E9 ; 0.0
8 ; 3.909552044287032E7 ; 6.932894797070467E8 ; 3.089998387461128E8 ; 5.202172418479805E9 ; 0.0
9 ; 3.937568191743795E7 ; 7.090275996402012E8 ; 3.4809535918898314E8 ; 5.8954618981868515E9 ; 0.0
10 ; 3.9805232589986585E7 ; 7.266193181090453E8 ; 3.874710411064211E8 ; 6.604489497827053E9 ; 0.0
11 ; 4.0495639862945944E7 ; 7.460646366772385E8 ; 4.272762736964077E8 ; 7.331108815936098E9 ; 0.0
12 ; 4.160590314670556E7 ; 7.673635537811211E8 ; 4.677719135593536E8 ; 8.077173452613337E9 ; 0.0
13 ; 4.266372352024996E7 ; 7.905160647430787E8 ; 5.0937781670605916E8 ; 8.844537006394457E9 ; 0.0
14 ; 4.279680415282585E7 ; 8.15522161811369E8 ; 5.520415402263091E8 ; 9.635053071137535E9 ; 0.0
15 ; 4.2836235772735134E7 ; 8.42381834225616E8 ; 5.948383443791349E8 ; 1.0450575232948904E10 ; 0.0
16 ; 4.288466473236875E7 ; 8.710950683066813E8 ; 6.3767458015187E8 ; 1.129295706717452E10 ; 0.0
17 ; 4.294202001071979E7 ; 9.016618475691674E8 ; 6.805592448842387E8 ; 1.2164052135481201E10 ; 0.0
18 ; 4.298407078581332E7 ; 9.340821528544164E8 ; 7.235012648949585E8 ; 1.306571398305037E10 ; 0.0
19 ; 4.303638732935431E7 ; 9.683559624815508E8 ; 7.664853356807718E8 ; 1.3999796135904785E10 ; 0.0
20 ; 4.3086247867089845E7 ; 1.0044832524138519E9 ; 8.095217230101261E8 ; 1.4968152098386335E10 ; 0.0
21 ; 4.313688314313168E7 ; 1.0424639964376293E9 ; 8.52607970877216E8 ; 1.5972635350800188E10 ; 0.0
22 ; 4.3186901816509046E7 ; 1.0822981663506427E9 ; 8.957448540203477E8 ; 1.7015099347237818E10 ; 0.0
23 ; 4.3237417275377825E7 ; 1.1239857321571546E9 ; 9.389317558368567E8 ; 1.809739751358846E10 ; 0.0
24 ; 4.3281920423271425E7 ; 1.1675266622667656E9 ; 9.821691731122346E8 ; 1.9221383245745613E10 ; 0.0
25 ; 4.333183963269256E7 ; 1.2050491690834281E9 ; 1.025451093535506E9 ; 2.038890990801238E10 ; 0.0
26 ; 4.338045849126291E7 ; 1.205074505425301E9 ; 1.0687829331681986E9 ; 2.1593959077095806E10 ; 0.0
27 ; 4.343182817372531E7 ; 1.2051012518689456E9 ; 1.1121633916594615E9 ; 2.2799033582521107E10 ; 0.0
28 ; 4.348326445939732E7 ; 1.205129372419027E9 ; 1.1555952198331869E9 ; 2.4004134834390053E10 ; 0.0
29 ; 4.353196260625882E7 ; 1.2051588304494274E9 ; 1.1990784842925842E9 ; 2.520926420680908E10 ; 0.0
30 ; 4.35673773299765E7 ; 1.2051895888760364E9 ; 1.242610446898843E9 ; 2.6414423037258507E10 ; 0.0
31 ; 4.361271656432851E7 ; 1.2052216103195589E9 ; 1.2861778242288196E9 ; 2.7619612626134544E10 ; 0.0
32 ; 4.366449760787383E7 ; 1.205254857257484E9 ; 1.329790540793148E9 ; 2.88248342364541E10 ; 0.0
33 ; 4.370717738257068E7 ; 1.2052892921646328E9 ; 1.373455038401022E9 ; 3.0030089093711586E10 ; 0.0
34 ; 4.3741394266173676E7 ; 1.2053248776419404E9 ; 1.4171622157835927E9 ; 3.123537838587622E10 ; 0.0
35 ; 4.378752464656046E7 ; 1.205361576533339E9 ; 1.4609036100497663E9 ; 3.244070326351816E10 ; 0.0
36 ; 4.382443963565695E7 ; 1.205399352030818E9 ; 1.5046911346963267E9 ; 3.3646064840051502E10 ; 0.0
37 ; 4.386851995538127E7 ; 1.2054381677678766E9 ; 1.5485155743319836E9 ; 3.485146419208232E10 ; 0.0
38 ; 4.3905489347249895E7 ; 1.2054779879017382E9 ; 1.5923840942873647E9 ; 3.60569023598502E10 ; 0.0
39 ; 4.393436115070501E7 ; 1.205518777184798E9 ; 1.6362895836346147E9 ; 3.726238034775194E10 ; 0.0
40 ; 4.396702388136472E7 ; 1.2055605010258548E9 ; 1.6802239447853198E9 ; 3.846789912493674E10 ; 0.0
41 ; 4.400167639805925E7 ; 1.205603125541745E9 ; 1.7241909686666846E9 ; 3.967345962596259E10 ; 0.0
42 ; 4.402721613580953E7 ; 1.2056466176000395E9 ; 1.768192645064744E9 ; 4.087906275150434E10 ; 0.0
43 ; 4.405663238932122E7 ; 1.205690944853478E9 ; 1.8122198612005534E9 ; 4.208470936910438E10 ; 0.0
44 ; 4.408445577630921E7 ; 1.2057360757668352E9 ; 1.8562764935898747E9 ; 4.3290400313957855E10 ; 0.0
45 ; 4.4107204447569184E7 ; 1.2057819796368985E9 ; 1.900360949366184E9 ; 4.449613638972469E10 ; 0.0
46 ; 4.4127991924597874E7 ; 1.2058286266062307E9 ; 1.9444681538137531E9 ; 4.5701918369361595E10 ; 0.0
47 ; 4.4149082538970485E7 ; 1.20587598767136E9 ; 1.988596145738351E9 ; 4.690774699596783E10 ; 0.0
48 ; 4.416260731946991E7 ; 1.205924034686017E9 ; 2.0327452282773216E9 ; 4.811362298363919E10 ; 0.0
49 ; 4.418436659095574E7 ; 1.2059727403600047E9 ; 2.0769078355967915E9 ; 4.931954701832521E10 ; 0.0
50 ; 4.420019376067309E7 ; 1.2060220782542384E9 ; 2.1210922021877472E9 ; 5.052551975868522E10 ; 0.0
51 ; 4.420359915252641E7 ; 1.2060720227724771E9 ; 2.1652923959484205E9 ; 5.173154183693946E10 ; 0.0
52 ; 4.422152802308522E7 ; 1.2061225491502025E9 ; 2.209495995100947E9 ; 5.293761385971194E10 ; 0.0
53 ; 4.4230084060588285E7 ; 1.2061736334410827E9 ; 2.253717523124032E9 ; 5.414373640886214E10 ; 0.0
54 ; 4.424195338178836E7 ; 1.206225252501408E9 ; 2.2979476071846204E9 ; 5.534991004230322E10 ; 0.0
55 ; 4.42553361476656E7 ; 1.206277383972852E9 ; 2.3421895605664086E9 ; 5.6556135294804634E10 ; 0.0
56 ; 4.4270854059640795E7 ; 1.2063300062638786E9 ; 2.386444896714074E9 ; 5.776241267877749E10 ; 0.0
57 ; 4.427273423305139E7 ; 1.206383098530073E9 ; 2.430715750773715E9 ; 5.896874268504137E10 ; 0.0
58 ; 4.428461580674457E7 ; 1.206436640653658E9 ; 2.4749884850067663E9 ; 6.017512578357144E10 ; 0.0
59 ; 4.429965097336331E7 ; 1.2064906132224078E9 ; 2.519273100813511E9 ; 6.13815624242251E10 ; 0.0
60 ; 4.430225504154038E7 ; 1.2065449975081677E9 ; 2.5635727517868743E9 ; 6.25880530374475E10 ; 0.0
61 ; 4.430912863897635E7 ; 1.206599775445138E9 ; 2.6078750068284144E9 ; 6.379459803495567E10 ; 0.0
62 ; 4.431823101088129E7 ; 1.2066549296080785E9 ; 2.652184135467391E9 ; 6.500119781040081E10 ; 0.0
63 ; 4.4329057227834955E7 ; 1.2067104431905627E9 ; 2.6965023664782724E9 ; 6.620785274000889E10 ; 0.0
64 ; 4.4331466604765564E7 ; 1.206766299983383E9 ; 2.7408314237061076E9 ; 6.741456318319945E10 ; 0.0
65 ; 4.434242217815009E7 ; 1.2068224843532066E9 ; 2.785162890310873E9 ; 6.862132948318283E10 ; 0.0
66 ; 4.434524641227403E7 ; 1.2068789812215564E9 ; 2.829505312489023E9 ; 6.982815196753604E10 ; 0.0
67 ; 4.435858490853474E7 ; 1.2069357760441828E9 ; 2.873850558901297E9 ; 7.10350309487576E10 ; 0.0
68 ; 4.435340986261873E7 ; 1.2069928547908764E9 ; 2.9182091438098316E9 ; 7.224196672480179E10 ; 0.0
69 ; 4.436422140400003E7 ; 1.2070502039257672E9 ; 2.9625625536724505E9 ; 7.344895957959267E10 ; 0.0
70 ; 4.4366386923237234E7 ; 1.2071078103881416E9 ; 3.0069267750764503E9 ; 7.465600978351843E10 ; 0.0
71 ; 4.4377879014601216E7 ; 1.2071656615738006E9 ; 3.0512931619996877E9 ; 7.586311759390657E10 ; 0.0
72 ; 4.437157302467516E7 ; 1.2072237453169804E9 ; 3.095671041014289E9 ; 7.707028325548038E10 ; 0.0
73 ; 4.437597347790274E7 ; 1.2072820498728466E9 ; 3.1400426140389643E9 ; 7.827750700079736E10 ; 0.0
74 ; 4.4379035373558894E7 ; 1.2073405639005687E9 ; 3.184418587516867E9 ; 7.948478905067021E10 ; 0.0
75 ; 4.438311750379086E7 ; 1.207399276446975E9 ; 3.228797622890426E9 ; 8.069212961457079E10 ; 0.0
76 ; 4.438517363583734E7 ; 1.2074581769307926E9 ; 3.273180740394217E9 ; 8.189952889101776E10 ; 0.0
77 ; 4.439197911376083E7 ; 1.2075172551274621E9 ; 3.3175659140300546E9 ; 8.310698706794855E10 ; 0.0
78 ; 4.4378815087324604E7 ; 1.2075765011545238E9 ; 3.3619578931438155E9 ; 8.4314504323076E10 ; 0.0
79 ; 4.4370581541492924E7 ; 1.2076359054575644E9 ; 3.40633670823114E9 ; 8.552208082423053E10 ; 0.0
80 ; 4.435429532996015E7 ; 1.2076954587967134E9 ; 3.450707289772633E9 ; 8.67297167296881E10 ; 0.0
81 ; 4.433804713946616E7 ; 1.2077551522336774E9 ; 3.4950615851025934E9 ; 8.79374121884848E10 ; 0.0
82 ; 4.43208625690845E7 ; 1.2078149771192985E9 ; 3.5393996322420597E9 ; 8.914516734071848E10 ; 0.0
83 ; 4.431363866891602E7 ; 1.207874925081621E9 ; 3.5837204948111444E9 ; 9.035298231783777E10 ; 0.0
84 ; 4.430123876902122E7 ; 1.2079349880144527E9 ; 3.6280341334800606E9 ; 9.156085724291939E10 ; 0.0
85 ; 4.42847474530842E7 ; 1.2079951580664058E9 ; 3.6723353722490816E9 ; 9.276879223093384E10 ; 0.0
86 ; 4.426717898055704E7 ; 1.2080554276303983E9 ; 3.7166201197021656E9 ; 9.397678738900024E10 ; 0.0
87 ; 4.425457759129717E7 ; 1.208115789333604E9 ; 3.7608872986827226E9 ; 9.518484281663065E10 ; 0.0
88 ; 4.424218825600907E7 ; 1.208176236027831E9 ; 3.8051418762740197E9 ; 9.639295860596425E10 ; 0.0
89 ; 4.4223276444263615E7 ; 1.2082367607803168E9 ; 3.849384064530029E9 ; 9.760113484199208E10 ; 0.0
90 ; 4.420875459793699E7 ; 1.2082973568649192E9 ; 3.8936073409742923E9 ; 9.88093716027724E10 ; 0.0
91 ; 4.418541315044475E7 ; 1.2083580177536933E9 ; 3.9378160955722294E9 ; 1.0001766895963731E11 ; 0.0
92 ; 4.416721159108933E7 ; 1.2084187371088333E9 ; 3.9820015087226744E9 ; 1.01226026977391E11 ; 0.0
93 ; 4.414881667325829E7 ; 1.208479508774969E9 ; 4.0261687203137636E9 ; 1.0243444571449985E11 ; 0.0
94 ; 4.413418359433062E7 ; 1.2085403267717993E9 ; 4.070317536987022E9 ; 1.0364292522327481E11 ; 0.0
95 ; 4.411348147059377E7 ; 1.2086011852870479E9 ; 4.1144517205813527E9 ; 1.0485146555004662E11 ; 0.0
96 ; 4.409753892708718E7 ; 1.208662078669734E9 ; 4.1585652020519466E9 ; 1.0606006673533366E11 ; 0.0
97 ; 4.408336878606388E7 ; 1.2087230014237328E9 ; 4.202662740979034E9 ; 1.072687288140034E11 ; 0.0
98 ; 4.40592903343362E7 ; 1.2087839482016265E9 ; 4.2467461097650976E9 ; 1.0847745181542714E11 ; 0.0
99 ; 4.403690920242382E7 ; 1.208844913798821E9 ; 4.290805400099434E9 ; 1.0968623576362877E11 ; 0.0
100 ; 4.401438874852474E7 ; 1.208905893147925E9 ; 4.334842309301858E9 ; 1.108950806774276E11 ; 0.0
101 ; 4.40010469486244E7 ; 1.208966881313376E9 ; 4.378856698050383E9 ; 1.1210398657057552E11 ; 0.0
102 ; 4.397704695198594E7 ; 1.2090278734863033E9 ; 4.422857744999007E9 ; 1.1331295345188889E11 ; 0.0
103 ; 4.394928095582087E7 ; 1.2090888649796162E9 ; 4.466834791950994E9 ; 1.1452198132537518E11 ; 0.0
104 ; 4.3927098190724276E7 ; 1.209149851223309E9 ; 4.510784072906815E9 ; 1.157310701903548E11 ; 0.0
105 ; 4.390793555883293E7 ; 1.2092108277599711E9 ; 4.554711171097539E9 ; 1.1694022004157811E11 ; 0.0
106 ; 4.3887617924548805E7 ; 1.2092717902404933E9 ; 4.598619106656372E9 ; 1.1814943086933807E11 ; 0.0
107 ; 4.3859206289780304E7 ; 1.2093327344199646E9 ; 4.642506724580921E9 ; 1.1935870265957857E11 ; 0.0
108 ; 4.383502998570017E7 ; 1.2093936561537437E9 ; 4.686365930870702E9 ; 1.2056803539399854E11 ; 0.0
109 ; 4.38075564373467E7 ; 1.2094545513937056E9 ; 4.730200960856402E9 ; 1.2177742905015228E11 ; 0.0
110 ; 4.378792057570944E7 ; 1.2095154161846476E9 ; 4.774008517293749E9 ; 1.2298688360154599E11 ; 0.0
111 ; 4.3756714857712075E7 ; 1.2095762466608539E9 ; 4.817796437869458E9 ; 1.2419639901773064E11 ; 0.0
112 ; 4.373404126126337E7 ; 1.2096370390428069E9 ; 4.86155315272717E9 ; 1.254059752643915E11 ; 0.0
113 ; 4.371301735638489E7 ; 1.20969778963404E9 ; 4.905287193988434E9 ; 1.266156123034343E11 ; 0.0
114 ; 4.3690060934550434E7 ; 1.2097584948181274E9 ; 4.949000211344819E9 ; 1.2782531009306833E11 ; 0.0
115 ; 4.3658864188056156E7 ; 1.2098191510558004E9 ; 4.992690272279369E9 ; 1.2903506858788646E11 ; 0.0
116 ; 4.362850290514025E7 ; 1.2098797548821876E9 ; 5.036349136467425E9 ; 1.3024488773894226E11 ; 0.0
117 ; 4.359613845414765E7 ; 1.2099403029041743E9 ; 5.079977639372565E9 ; 1.3145476749382445E11 ; 0.0
118 ; 4.356978953269265E7 ; 1.2100007917978709E9 ; 5.123573777826713E9 ; 1.3266470779672862E11 ; 0.0
119 ; 4.354203490758922E7 ; 1.21006121830619E9 ; 5.1671435673594055E9 ; 1.3387470858852649E11 ; 0.0
120 ; 4.351595361602651E7 ; 1.2101215792365258E9 ; 5.210685602266994E9 ; 1.3508476980683267E11 ; 0.0
121 ; 4.3481968887535416E7 ; 1.2101818714585304E9 ; 5.254201555883021E9 ; 1.362948913860692E11 ; 0.0
122 ; 4.345411985173062E7 ; 1.2102420919019816E9 ; 5.297683524770556E9 ; 1.3750507325752774E11 ; 0.0
123 ; 4.342475469355846E7 ; 1.2103022375547433E9 ; 5.341137644622287E9 ; 1.3871531534942972E11 ; 0.0
124 ; 4.339510972518939E7 ; 1.210362305460806E9 ; 5.3845623993158455E9 ; 1.3992561758698447E11 ; 0.0
125 ; 4.3358578055372044E7 ; 1.2104222927184117E9 ; 5.427957509041035E9 ; 1.4113597989244528E11 ; 0.0
126 ; 4.332986190457963E7 ; 1.2104821964782553E9 ; 5.471316087096407E9 ; 1.423464021851637E11 ; 0.0
127 ; 4.329904516315411E7 ; 1.2105420139417586E9 ; 5.514645949000986E9 ; 1.4355688438164194E11 ; 0.0
128 ; 4.326561080356556E7 ; 1.2106017423594162E9 ; 5.55794499416414E9 ; 1.447674263955837E11 ; 0.0
129 ; 4.323280200389203E7 ; 1.2106613790292082E9 ; 5.601210604967706E9 ; 1.459780281379431E11 ; 0.0
130 ; 4.3189295566293925E7 ; 1.2107209212950773E9 ; 5.644443406971598E9 ; 1.4718868951697232E11 ; 0.0
131 ; 4.314429862862043E7 ; 1.2107803665454683E9 ; 5.687632702537891E9 ; 1.483994104382674E11 ; 0.0
132 ; 4.3096928645376205E7 ; 1.210839712211924E9 ; 5.730777001166512E9 ; 1.4961019080481287E11 ; 0.0
133 ; 4.304452482247364E7 ; 1.2108989557677412E9 ; 5.773873929811888E9 ; 1.5082103051702478E11 ; 0.0
134 ; 4.300392684974548E7 ; 1.2109580947266767E9 ; 5.816918454634361E9 ; 1.520319294727925E11 ; 0.0
135 ; 4.29520914938816E7 ; 1.2110171266417074E9 ; 5.859922381484107E9 ; 1.532428875675192E11 ; 0.0
136 ; 4.290624212933327E7 ; 1.211076049103837E9 ; 5.902874472977988E9 ; 1.544539046941609E11 ; 0.0
137 ; 4.2853038631656885E7 ; 1.2111348597409532E9 ; 5.945780715107322E9 ; 1.5566498074326474E11 ; 0.0
138 ; 4.280643911376565E7 ; 1.2111935562167265E9 ; 5.988633753738978E9 ; 1.568761156030057E11 ; 0.0
139 ; 4.275551369365187E7 ; 1.2112521362295542E9 ; 6.031440192852744E9 ; 1.5808730915922244E11 ; 0.0
140 ; 4.270049548717623E7 ; 1.2113105975115445E9 ; 6.074195706546396E9 ; 1.59298561295452E11 ; 0.0
141 ; 4.26550370134823E7 ; 1.2113689378275409E9 ; 6.116896202033572E9 ; 1.6050987189296353E11 ; 0.0
142 ; 4.260492839233165E7 ; 1.2114271549741838E9 ; 6.159551239047054E9 ; 1.6172124083079108E11 ; 0.0
143 ; 4.2553131625083975E7 ; 1.211485246779008E9 ; 6.202156167439386E9 ; 1.6293266798576526E11 ; 0.0
144 ; 4.250111366756739E7 ; 1.2115432110995765E9 ; 6.24470929906447E9 ; 1.6414415323254428E11 ; 0.0
145 ; 4.2464318146129325E7 ; 1.2116010458226447E9 ; 6.287210412732038E9 ; 1.6535569644364386E11 ; 0.0
146 ; 4.243643647007764E7 ; 1.211658748863359E9 ; 6.329674730878167E9 ; 1.665672974894665E11 ; 0.0
147 ; 4.239196249771005E7 ; 1.2117163181644845E9 ; 6.372111167348245E9 ; 1.6777895623832986E11 ; 0.0
148 ; 4.235780637151538E7 ; 1.211773751695662E9 ; 6.414503129845955E9 ; 1.6899067255649435E11 ; 0.0
149 ; 4.23170589487986E7 ; 1.211831047452693E9 ; 6.45686093621747E9 ; 1.7020244630819E11 ; 0.0
150 ; 4.228739457956175E7 ; 1.2118882034568524E9 ; 6.499177995166268E9 ; 1.714142773556427E11 ; 0.0
151 ; 4.225452954755119E7 ; 1.2119452177542255E9 ; 6.541465389745831E9 ; 1.7262616555909955E11 ; 0.0
152 ; 4.22064971825063E7 ; 1.2120020884150705E9 ; 6.583719919293382E9 ; 1.7383811077685376E11 ; 0.0
153 ; 4.217090046803349E7 ; 1.212058813533205E9 ; 6.625926416475888E9 ; 1.7505011286526883E11 ; 0.0
154 ; 4.213745593458363E7 ; 1.2121153912254136E9 ; 6.668097316943922E9 ; 1.7626217167880203E11 ; 0.0
155 ; 4.209592864347205E7 ; 1.2121718196308794E9 ; 6.710234772878506E9 ; 1.7747428707002744E11 ; 0.0
156 ; 4.2060041363013E7 ; 1.212228096910635E9 ; 6.752330701521977E9 ; 1.7868645888965833E11 ; 0.0
157 ; 4.202000989698961E7 ; 1.2122842212470338E9 ; 6.794390742884991E9 ; 1.7989868698656897E11 ; 0.0
158 ; 4.198361569547939E7 ; 1.2123401908432412E9 ; 6.8364107527819805E9 ; 1.81110971207816E11 ; 0.0
159 ; 4.194508862266623E7 ; 1.2123960039227424E9 ; 6.87839436847746E9 ; 1.8232331139865924E11 ; 0.0
160 ; 4.191043692102981E7 ; 1.2124516587288716E9 ; 6.920339457100126E9 ; 1.8353570740258197E11 ; 0.0
161 ; 4.1871669888346754E7 ; 1.2125071535243533E9 ; 6.962249894021156E9 ; 1.8474815906131085E11 ; 0.0
162 ; 4.183163250518598E7 ; 1.2125624865908651E9 ; 7.004121563909503E9 ; 1.859606662148352E11 ; 0.0
163 ; 4.1795093554762855E7 ; 1.2126176562286115E9 ; 7.045953196414689E9 ; 1.8717322870142606E11 ; 0.0
164 ; 4.175257518416287E7 ; 1.2126726607559175E9 ; 7.087748289969452E9 ; 1.8838584635765466E11 ; 0.0
165 ; 4.172379931093283E7 ; 1.2127274985088325E9 ; 7.129500865153615E9 ; 1.8959851901841058E11 ; 0.0
166 ; 4.167711500177391E7 ; 1.2127821678407505E9 ; 7.171224664464548E9 ; 1.908112465169194E11 ; 0.0
167 ; 4.163584909386032E7 ; 1.2128366671220438E9 ; 7.212901779466322E9 ; 1.9202402868476016E11 ; 0.0
168 ; 4.1589900706087336E7 ; 1.2128909947397087E9 ; 7.254537628560183E9 ; 1.932368653518822E11 ; 0.0
169 ; 4.155096341960703E7 ; 1.212945149097023E9 ; 7.29612752926627E9 ; 1.9444975634662192E11 ; 0.0
170 ; 4.152209695786409E7 ; 1.2129991286132188E9 ; 7.337678492685877E9 ; 1.9566270149571893E11 ; 0.0
171 ; 4.147311394198706E7 ; 1.2130529317231624E9 ; 7.379200589643741E9 ; 1.9687570062433215E11 ; 0.0
172 ; 4.143599399610429E7 ; 1.213106556877048E9 ; 7.420673703585728E9 ; 1.9808875355605533E11 ; 0.0
173 ; 4.139610504878254E7 ; 1.2131600025401015E9 ; 7.462109697581832E9 ; 1.9930186011293237E11 ; 0.0
174 ; 4.13727468451661E7 ; 1.2132132671922936E9 ; 7.503505802630614E9 ; 2.0051502011547247E11 ; 0.0
175 ; 4.135091773185891E7 ; 1.2132663493280652E9 ; 7.5448785494757805E9 ; 2.0172823338266476E11 ; 0.0
176 ; 4.1325031623801075E7 ; 1.213319247456059E9 ; 7.58622946720764E9 ; 2.0294149973199283E11 ; 0.0
177 ; 4.130043183375723E7 ; 1.213371960098863E9 ; 7.627554498831441E9 ; 2.0415481897944888E11 ; 0.0
178 ; 4.1272111668535426E7 ; 1.2134244857927604E9 ; 7.668854930665198E9 ; 2.0536819093954776E11 ; 0.0
179 ; 4.124701884907722E7 ; 1.2134768230874915E9 ; 7.710127042333734E9 ; 2.065816154253405E11 ; 0.0
180 ; 4.122688912344462E7 ; 1.2135289705460196E9 ; 7.751374061182811E9 ; 2.07795092248428E11 ; 0.0
181 ; 4.1205317215566695E7 ; 1.2135809267443073E9 ; 7.792600950306255E9 ; 2.0900862121897403E11 ; 0.0
182 ; 4.1175321655698225E7 ; 1.2136326902711005E9 ; 7.833806267521822E9 ; 2.1022220214571832E11 ; 0.0
183 ; 4.115257541991085E7 ; 1.2136842597277184E9 ; 7.87498158917752E9 ; 2.114358348359894E11 ; 0.0
184 ; 4.112513379796578E7 ; 1.213735633727851E9 ; 7.91613416459743E9 ; 2.1264951909571713E11 ; 0.0
185 ; 4.110085418895182E7 ; 1.2137868108973644E9 ; 7.957259298395396E9 ; 2.1386325472944498E11 ; 0.0
186 ; 4.107770191451812E7 ; 1.2138377898741114E9 ; 7.998360152584348E9 ; 2.1507704154034235E11 ; 0.0
187 ; 4.105311257037477E7 ; 1.2138885693077488E9 ; 8.039437854498866E9 ; 2.1629087933021646E11 ; 0.0
188 ; 4.103265275242618E7 ; 1.2139391478595607E9 ; 8.080490967069241E9 ; 2.175047678995242E11 ; 0.0
189 ; 4.1002695140481174E7 ; 1.2139895242022896E9 ; 8.121523619821667E9 ; 2.1871870704738376E11 ; 0.0
190 ; 4.098576871633579E7 ; 1.2140396970199683E9 ; 8.162526314962148E9 ; 2.1993269657158606E11 ; 0.0
191 ; 4.095550999017621E7 ; 1.214089665007763E9 ; 8.203512083678484E9 ; 2.2114673626860602E11 ; 0.0
192 ; 4.0930322048810214E7 ; 1.2141394268718185E9 ; 8.24446759366866E9 ; 2.2236082593361377E11 ; 0.0
193 ; 4.090891011985958E7 ; 1.2141889813291082E9 ; 8.28539791571747E9 ; 2.235749653604856E11 ; 0.0
194 ; 4.0883918540049314E7 ; 1.2142383271072915E9 ; 8.32630682583733E9 ; 2.247891543418147E11 ; 0.0
195 ; 4.085302806185216E7 ; 1.2142874629445722E9 ; 8.367190744377379E9 ; 2.26003392668922E11 ; 0.0
196 ; 4.082877309676542E7 ; 1.214336387589566E9 ; 8.408043772439232E9 ; 2.2721768013186658E11 ; 0.0
197 ; 4.080444308222281E7 ; 1.2143850998011684E9 ; 8.448872545535997E9 ; 2.2843201651945615E11 ; 0.0
