CSV File for the Network on Day 181
1 - Minute m 
2 - Power Consumed at minute m 
3 - Power Produced at minute m 
4 - Energy Consumed since the beginning of the day 
5 - Energy Produced since the beginning of the day 
6 - Energy Lost since the beginning of the day 
 
0 ; 8522898.28434296 ; 6.345075770376716E8 ; 0.0 ; 0.0 ; 0.0
1 ; 8557564.886153273 ; 6.354179394852054E8 ; 8522898.28434296 ; 6.345075770376716E8 ; 0.0
2 ; 8595885.219645942 ; 6.38181730347568E8 ; 1.7080463170496233E7 ; 1.269925516522877E9 ; 0.0
3 ; 8639567.023984639 ; 6.427989696099999E8 ; 2.5676348390142173E7 ; 1.908107246870445E9 ; 0.0
4 ; 8686838.25870724 ; 6.492696752407025E8 ; 3.431591541412681E7 ; 2.550906216480445E9 ; 0.0
5 ; 8759749.168910883 ; 6.575938630719316E8 ; 4.300275367283405E7 ; 3.2001758917211475E9 ; 0.0
6 ; 8845840.790912839 ; 6.677715466927973E8 ; 5.176250284174494E7 ; 3.8577697547930794E9 ; 0.0
7 ; 8966254.39192095 ; 6.798027373554295E8 ; 6.0608343632657774E7 ; 4.525541301485877E9 ; 0.0
8 ; 9160069.310104515 ; 6.93687443895994E8 ; 6.957459802457872E7 ; 5.205344038841307E9 ; 0.0
9 ; 9438884.440109026 ; 7.094256726718538E8 ; 7.873466733468324E7 ; 5.899031482737301E9 ; 0.0
10 ; 9871594.980233483 ; 7.270174275159094E8 ; 8.817355177479227E7 ; 6.608457155409155E9 ; 0.0
11 ; 1.0553580832371674E7 ; 7.464627097088909E8 ; 9.804514675502574E7 ; 7.335474582925064E9 ; 0.0
12 ; 1.1665218556351725E7 ; 7.677615179700682E8 ; 1.0859872758739743E8 ; 8.081937292633955E9 ; 0.0
13 ; 1.27201991129743E7 ; 7.909138484665406E8 ; 1.2026394614374915E8 ; 8.849698810604023E9 ; 0.0
14 ; 1.2855786071922936E7 ; 8.159196948409456E8 ; 1.3298414525672345E8 ; 9.640612659070564E9 ; 0.0
15 ; 1.2898469288870953E7 ; 8.427790482571166E8 ; 1.458399313286464E8 ; 1.045653235391151E10 ; 0.0
16 ; 1.2944324345570564E7 ; 8.714918974629247E8 ; 1.5873840061751735E8 ; 1.1299311402168627E10 ; 0.0
17 ; 1.2989474049381392E7 ; 9.020582288692594E8 ; 1.7168272496308792E8 ; 1.2170803299631552E10 ; 0.0
18 ; 1.3046889314243302E7 ; 9.344780266438644E8 ; 1.8467219901246932E8 ; 1.307286152850081E10 ; 0.0
19 ; 1.3091101071602251E7 ; 9.687512728185385E8 ; 1.977190883267126E8 ; 1.4007339555144674E10 ; 0.0
20 ; 1.3141894197382232E7 ; 1.0048779474080417E9 ; 2.1081018939831486E8 ; 1.4976090827963213E10 ; 0.0
21 ; 1.3194009839838991E7 ; 1.0428580285389284E9 ; 2.239520835956971E8 ; 1.5980968775371254E10 ; 0.0
22 ; 1.3244946721132683E7 ; 1.0826914925864625E9 ; 2.371460934355361E8 ; 1.7023826803910183E10 ; 0.0
23 ; 1.3293703770828022E7 ; 1.1243783143177254E9 ; 2.5039104015666878E8 ; 1.8106518296496647E10 ; 0.0
24 ; 1.334438749866168E7 ; 1.167918467039052E9 ; 2.636847439274968E8 ; 1.9230896610814373E10 ; 0.0
25 ; 1.3393661771890529E7 ; 1.205440168135078E9 ; 2.770291314261585E8 ; 2.0398815077853424E10 ; 0.0
26 ; 1.3446470067010527E7 ; 1.2054646754408414E9 ; 2.90422793198049E8 ; 2.1604255245988503E10 ; 0.0
27 ; 1.3489942049714604E7 ; 1.2054905745410922E9 ; 3.0386926326505953E8 ; 2.2809719921429344E10 ; 0.0
28 ; 1.3537148417544957E7 ; 1.205517834398505E9 ; 3.1735920531477416E8 ; 2.4015210495970436E10 ; 0.0
29 ; 1.3586104958446037E7 ; 1.2055464232570968E9 ; 3.308963537323191E8 ; 2.5220728330368942E10 ; 0.0
30 ; 1.3632933464325678E7 ; 1.2055763087813842E9 ; 3.4448245869076514E8 ; 2.6426274753626038E10 ; 0.0
31 ; 1.3681824627312003E7 ; 1.2056074581897721E9 ; 3.581153921550908E8 ; 2.763185106240742E10 ; 0.0
32 ; 1.372797897124207E7 ; 1.2056398383813655E9 ; 3.717972167824028E8 ; 2.8837458520597195E10 ; 0.0
33 ; 1.3771175993355112E7 ; 1.2056734160555642E9 ; 3.855251957536449E8 ; 3.004309835897856E10 ; 0.0
34 ; 1.381953904558353E7 ; 1.2057081578239646E9 ; 3.99296371747E8 ; 3.1248771775034126E10 ; 0.0
35 ; 1.385259778972086E7 ; 1.2057440303142447E9 ; 4.131159107925835E8 ; 3.245447993285809E10 ; 0.0
36 ; 1.3902163724513138E7 ; 1.2057810002658458E9 ; 4.2696850858230436E8 ; 3.3660223963172333E10 ; 0.0
37 ; 1.3936770668066021E7 ; 1.2058190346173916E9 ; 4.408706723068175E8 ; 3.486600496343818E10 ; 0.0
38 ; 1.3972923561030414E7 ; 1.2058581005858974E9 ; 4.548074429748835E8 ; 3.607182399805557E10 ; 0.0
39 ; 1.4016450660559805E7 ; 1.2058981657379115E9 ; 4.687803665359139E8 ; 3.727768209864147E10 ; 0.0
40 ; 1.4054120837023944E7 ; 1.20593919805282E9 ; 4.827968171964737E8 ; 3.848358026437939E10 ; 0.0
41 ; 1.4083421827128265E7 ; 1.205981165978603E9 ; 4.968509380334977E8 ; 3.9689519462432205E10 ; 0.0
42 ; 1.4110114263106626E7 ; 1.2060240384803896E9 ; 5.10934359860626E8 ; 4.0895500628410805E10 ; 0.0
43 ; 1.413771942970265E7 ; 1.2060677850821967E9 ; 5.250444741237326E8 ; 4.21015246668912E10 ; 0.0
44 ; 1.4170618239253763E7 ; 1.2061123759022565E9 ; 5.391821935534353E8 ; 4.33075924519734E10 ; 0.0
45 ; 1.4205779142506724E7 ; 1.2061577816823754E9 ; 5.533528117926891E8 ; 4.4513704827875656E10 ; 0.0
46 ; 1.4221573169963328E7 ; 1.2062039738117495E9 ; 5.675585909351958E8 ; 4.571986260955803E10 ; 0.0
47 ; 1.4249063410422394E7 ; 1.2062509243456876E9 ; 5.817801641051592E8 ; 4.692606658336978E10 ; 0.0
48 ; 1.4266319463109639E7 ; 1.2062986060196743E9 ; 5.960292275155816E8 ; 4.813231750771547E10 ; 0.0
49 ; 1.4286242505615097E7 ; 1.2063469922591958E9 ; 6.102955469786912E8 ; 4.9338616113735146E10 ; 0.0
50 ; 1.4300970022397846E7 ; 1.206396057185744E9 ; 6.245817894843063E8 ; 5.054496310599434E10 ; 0.0
51 ; 1.4318643341045717E7 ; 1.2064457756193898E9 ; 6.388827595067042E8 ; 5.1751359163180084E10 ; 0.0
52 ; 1.432887424925487E7 ; 1.206496123078301E9 ; 6.5320140284775E8 ; 5.295780493879948E10 ; 0.0
53 ; 1.4354269558581918E7 ; 1.206547075775554E9 ; 6.675302770970048E8 ; 5.416430106187778E10 ; 0.0
54 ; 1.4360080498232996E7 ; 1.2065986106135726E9 ; 6.818845466555867E8 ; 5.537084813765333E10 ; 0.0
55 ; 1.4375283803321231E7 ; 1.2066507051764967E9 ; 6.962446271538197E8 ; 5.65774467482669E10 ; 0.0
56 ; 1.4397399379716977E7 ; 1.2067033377207627E9 ; 7.106199109571409E8 ; 5.77840974534434E10 ; 0.0
57 ; 1.4403687860773325E7 ; 1.2067564871641617E9 ; 7.250173103368579E8 ; 5.899080079116416E10 ; 0.0
58 ; 1.442578165380314E7 ; 1.206810133073605E9 ; 7.394209981976312E8 ; 6.019755727832832E10 ; 0.0
59 ; 1.4433357026679412E7 ; 1.206864255651819E9 ; 7.538467798514344E8 ; 6.140436741140193E10 ; 0.0
60 ; 1.4450944459266936E7 ; 1.206918835723161E9 ; 7.682801368781137E8 ; 6.261123166705375E10 ; 0.0
61 ; 1.4460739669106161E7 ; 1.2069738547187333E9 ; 7.827310813373806E8 ; 6.381815050277691E10 ; 0.0
62 ; 1.4477823730133526E7 ; 1.2070292946609545E9 ; 7.971918210064868E8 ; 6.502512435749564E10 ; 0.0
63 ; 1.448028455365578E7 ; 1.207085138147726E9 ; 8.116696447366203E8 ; 6.62321536521566E10 ; 0.0
64 ; 1.449655051060273E7 ; 1.2071413683363202E9 ; 8.26149929290276E8 ; 6.743923879030433E10 ; 0.0
65 ; 1.4506520648305636E7 ; 1.2071979689270973E9 ; 8.406464798008788E8 ; 6.864638015864065E10 ; 0.0
66 ; 1.4521161712045182E7 ; 1.2072549241471536E9 ; 8.551530004491844E8 ; 6.985357812756775E10 ; 0.0
67 ; 1.453072149965067E7 ; 1.2073122187339768E9 ; 8.696741621612296E8 ; 7.10608330517149E10 ; 0.0
68 ; 1.4542009058066165E7 ; 1.2073698379191892E9 ; 8.842048836608803E8 ; 7.226814527044888E10 ; 0.0
69 ; 1.4552319135831935E7 ; 1.207427767412436E9 ; 8.987468927189465E8 ; 7.347551510836807E10 ; 0.0
70 ; 1.4564586149250675E7 ; 1.207485993385475E9 ; 9.132992118547784E8 ; 7.46829428757805E10 ; 0.0
71 ; 1.4574971980728311E7 ; 1.2075445024565125E9 ; 9.27863798004029E8 ; 7.589042886916597E10 ; 0.0
72 ; 1.458222863086477E7 ; 1.2076032816748238E9 ; 9.424387699847573E8 ; 7.709797337162248E10 ; 0.0
73 ; 1.4594816194624793E7 ; 1.2076623185056877E9 ; 9.57020998615622E8 ; 7.83055766532973E10 ; 0.0
74 ; 1.4604922048406936E7 ; 1.2077216008156617E9 ; 9.716158148102468E8 ; 7.9513238971803E10 ; 0.0
75 ; 1.4603847916485561E7 ; 1.2077811168582199E9 ; 9.862207368586538E8 ; 8.072096057261865E10 ; 0.0
76 ; 1.4617899079056688E7 ; 1.2078408552597654E9 ; 1.0008245847751393E9 ; 8.192874168947687E10 ; 0.0
77 ; 1.4629056392087054E7 ; 1.2079008050060313E9 ; 1.0154424838541961E9 ; 8.313658254473663E10 ; 0.0
78 ; 1.4616307735527523E7 ; 1.2079609554288788E9 ; 1.0300715402462832E9 ; 8.434448334974266E10 ; 0.0
79 ; 1.461052034980958E7 ; 1.2080212961934938E9 ; 1.0446878479818107E9 ; 8.555244430517154E10 ; 0.0
80 ; 1.4613058878185526E7 ; 1.2080818172859895E9 ; 1.0592983683316202E9 ; 8.676046560136504E10 ; 0.0
81 ; 1.45969329514274E7 ; 1.20814250900141E9 ; 1.0739114272098057E9 ; 8.796854741865103E10 ; 0.0
82 ; 1.4595465161475439E7 ; 1.2082033619321353E9 ; 1.0885083601612332E9 ; 8.917668992765244E10 ; 0.0
83 ; 1.4588961093728594E7 ; 1.2082643669566848E9 ; 1.1031038253227086E9 ; 9.038489328958456E10 ; 0.0
84 ; 1.4584646465272948E7 ; 1.208325515228911E9 ; 1.1176927864164371E9 ; 9.159315765654124E10 ; 0.0
85 ; 1.4574139132321246E7 ; 1.20838679816758E9 ; 1.13227743288171E9 ; 9.280148317177016E10 ; 0.0
86 ; 1.456499878117476E7 ; 1.2084482074463305E9 ; 1.1468515720140314E9 ; 9.400986996993774E10 ; 0.0
87 ; 1.4557573730796248E7 ; 1.2085097349840035E9 ; 1.161416570795206E9 ; 9.521831817738408E10 ; 0.0
88 ; 1.4554600583461992E7 ; 1.2085713729353313E9 ; 1.1759741445260024E9 ; 9.642682791236809E10 ; 0.0
89 ; 1.4546103438264707E7 ; 1.208633113681981E9 ; 1.1905287451094644E9 ; 9.763539928530342E10 ; 0.0
90 ; 1.4528044835717022E7 ; 1.2086949498239403E9 ; 1.205074848547729E9 ; 9.88440323989854E10 ; 0.0
91 ; 1.4520518787980042E7 ; 1.2087568741712322E9 ; 1.219602893383446E9 ; 1.0005272734880934E11 ; 0.0
92 ; 1.4515402591269597E7 ; 1.208818879735959E9 ; 1.234123412171426E9 ; 1.0126148422298058E11 ; 0.0
93 ; 1.4502141580252498E7 ; 1.2088809597246525E9 ; 1.2486388147626956E9 ; 1.0247030310271654E11 ; 0.0
94 ; 1.4493024651459808E7 ; 1.2089431075309272E9 ; 1.263140956342948E9 ; 1.036791840624412E11 ; 0.0
95 ; 1.4486594255612288E7 ; 1.2090053167284281E9 ; 1.2776339809944077E9 ; 1.0488812716997212E11 ; 0.0
96 ; 1.4462378759330142E7 ; 1.2090675810640564E9 ; 1.29212057525002E9 ; 1.0609713248670055E11 ; 0.0
97 ; 1.4464964997600215E7 ; 1.209129894451469E9 ; 1.30658295400935E9 ; 1.073062000677646E11 ; 0.0
98 ; 1.4446940388693647E7 ; 1.2091922509648387E9 ; 1.3210479190069504E9 ; 1.0851532996221606E11 ; 0.0
99 ; 1.4439745531274982E7 ; 1.2092546448328657E9 ; 1.335494859395644E9 ; 1.0972452221318091E11 ; 0.0
100 ; 1.442038568290723E7 ; 1.2093170704330337E9 ; 1.349934604926919E9 ; 1.1093377685801378E11 ; 0.0
101 ; 1.4418192187164558E7 ; 1.2093795222860937E9 ; 1.3643549906098263E9 ; 1.1214309392844681E11 ; 0.0
102 ; 1.4402698586799895E7 ; 1.2094419950507796E9 ; 1.3787731827969909E9 ; 1.133524734507329E11 ; 0.0
103 ; 1.438989134495066E7 ; 1.2095044835187316E9 ; 1.3931758813837907E9 ; 1.1456191544578368E11 ; 0.0
104 ; 1.437620912184504E7 ; 1.2095669826096318E9 ; 1.4075657727287414E9 ; 1.1577141992930241E11 ; 0.0
105 ; 1.4354258096002683E7 ; 1.2096294873665328E9 ; 1.4219419818505864E9 ; 1.1698098691191205E11 ; 0.0
106 ; 1.4342209227399461E7 ; 1.2096919929513812E9 ; 1.436296239946589E9 ; 1.1819061639927858E11 ; 0.0
107 ; 1.4334379119419886E7 ; 1.2097544946407228E9 ; 1.4506384491739883E9 ; 1.1940030839222997E11 ; 0.0
108 ; 1.4317268105463674E7 ; 1.209816987821579E9 ; 1.4649728282934082E9 ; 1.2061006288687068E11 ; 0.0
109 ; 1.4301148114958068E7 ; 1.2098794679874966E9 ; 1.479290096398872E9 ; 1.2181987987469226E11 ; 0.0
110 ; 1.4288142780417712E7 ; 1.2099419307347548E9 ; 1.49359124451383E9 ; 1.2302975934267976E11 ; 0.0
111 ; 1.4269107529907644E7 ; 1.2100043717587283E9 ; 1.5078793872942476E9 ; 1.2423970127341452E11 ; 0.0
112 ; 1.4258816155826734E7 ; 1.2100667868503952E9 ; 1.5221484948241553E9 ; 1.2544970564517325E11 ; 0.0
113 ; 1.423891805978594E7 ; 1.2101291718929908E9 ; 1.5364073109799821E9 ; 1.2665977243202365E11 ; 0.0
114 ; 1.4225823493935522E7 ; 1.2101915228587947E9 ; 1.550646229039768E9 ; 1.2786990160391664E11 ; 0.0
115 ; 1.4196797907021835E7 ; 1.210253835806046E9 ; 1.5648720525337036E9 ; 1.2908009312677544E11 ; 0.0
116 ; 1.4187542565044804E7 ; 1.2103161068759868E9 ; 1.5790688504407253E9 ; 1.3029034696258148E11 ; 0.0
117 ; 1.4174103930064576E7 ; 1.2103783322900217E9 ; 1.5932563930057702E9 ; 1.3150066306945747E11 ; 0.0
118 ; 1.414903605139803E7 ; 1.2104405083469932E9 ; 1.607430496935835E9 ; 1.327110414017475E11 ; 0.0
119 ; 1.413402256524748E7 ; 1.2105026314205656E9 ; 1.621579532987233E9 ; 1.339214819100945E11 ; 0.0
120 ; 1.4121631802724909E7 ; 1.210564697956714E9 ; 1.6357135555524805E9 ; 1.3513198454151506E11 ; 0.0
121 ; 1.4095676210445877E7 ; 1.2106267044713118E9 ; 1.6498351873552053E9 ; 1.3634254923947177E11 ; 0.0
122 ; 1.4084538643583637E7 ; 1.2106886475478182E9 ; 1.6639308635656512E9 ; 1.3755317594394308E11 ; 0.0
123 ; 1.4063420142313618E7 ; 1.2107505238350532E9 ; 1.6780154022092347E9 ; 1.387638645914909E11 ; 0.0
124 ; 1.4040472336945185E7 ; 1.2108123300450625E9 ; 1.6920788223515484E9 ; 1.3997461511532596E11 ; 0.0
125 ; 1.402485901015562E7 ; 1.210874062951068E9 ; 1.7061192946884937E9 ; 1.4118542744537103E11 ; 0.0
126 ; 1.399709848791854E7 ; 1.210935719385496E9 ; 1.7201441536986494E9 ; 1.423963015083221E11 ; 0.0
127 ; 1.3985059596987229E7 ; 1.2109972962380857E9 ; 1.734141252186568E9 ; 1.436072372277076E11 ; 0.0
128 ; 1.3961939418883024E7 ; 1.2110587904540703E9 ; 1.7481263117835553E9 ; 1.448182345239457E11 ; 0.0
129 ; 1.3942298433427263E7 ; 1.2111201990324287E9 ; 1.7620882512024384E9 ; 1.4602929331439978E11 ; 0.0
130 ; 1.391354144816399E7 ; 1.211181519024207E9 ; 1.7760305496358657E9 ; 1.4724041351343222E11 ; 0.0
131 ; 1.3883482357735801E7 ; 1.211242747530902E9 ; 1.7899440910840297E9 ; 1.4845159503245642E11 ; 0.0
132 ; 1.3841535565541975E7 ; 1.2113038817029107E9 ; 1.8038275734417655E9 ; 1.4966283777998734E11 ; 0.0
133 ; 1.380419023087281E7 ; 1.2113649187380366E9 ; 1.8176691090073075E9 ; 1.5087414166169025E11 ; 0.0
134 ; 1.377364809225058E7 ; 1.2114258558800564E9 ; 1.8314732992381804E9 ; 1.5208550658042828E11 ; 0.0
135 ; 1.3733776370077014E7 ; 1.2114866904173372E9 ; 1.845246947330431E9 ; 1.5329693243630835E11 ; 0.0
136 ; 1.3704925445563626E7 ; 1.2115474196815112E9 ; 1.858980723700508E9 ; 1.5450841912672568E11 ; 0.0
137 ; 1.366719857332942E7 ; 1.2116080410461974E9 ; 1.8726856491460717E9 ; 1.557199665464072E11 ; 0.0
138 ; 1.363054226900899E7 ; 1.211668551925773E9 ; 1.8863528477194011E9 ; 1.569315745874534E11 ; 0.0
139 ; 1.3588766620607896E7 ; 1.2117289497741914E9 ; 1.89998338998841E9 ; 1.5814324313937918E11 ; 0.0
140 ; 1.3555653892757803E7 ; 1.2117892320838444E9 ; 1.9135721566090178E9 ; 1.5935497208915338E11 ; 0.0
141 ; 1.3514769147895522E7 ; 1.2118493963844664E9 ; 1.9271278105017757E9 ; 1.605667613212372E11 ; 0.0
142 ; 1.3476849092421606E7 ; 1.211909440242081E9 ; 1.9406425796496713E9 ; 1.6177861071762167E11 ; 0.0
143 ; 1.3441079095967758E7 ; 1.2119693612579849E9 ; 1.9541194287420928E9 ; 1.6299052015786377E11 ; 0.0
144 ; 1.3404712865215058E7 ; 1.212029157067772E9 ; 1.9675605078380606E9 ; 1.6420248951912177E11 ; 0.0
145 ; 1.337647996206329E7 ; 1.2120888253403904E9 ; 1.9809652207032757E9 ; 1.6541451867618954E11 ; 0.0
146 ; 1.33605320814704E7 ; 1.2121483637772374E9 ; 1.994341700665339E9 ; 1.6662660750152994E11 ; 0.0
147 ; 1.3340175224519726E7 ; 1.2122077701112857E9 ; 2.0077022327468095E9 ; 1.678387558653072E11 ; 0.0
148 ; 1.3318633045838822E7 ; 1.2122670421062422E9 ; 2.0210424079713292E9 ; 1.690509636354185E11 ; 0.0
149 ; 1.329072928535743E7 ; 1.2123261775557373E9 ; 2.034361041017168E9 ; 1.7026323067752472E11 ; 0.0
150 ; 1.3272674456349952E7 ; 1.2123851742825432E9 ; 2.0476517703025255E9 ; 1.7147555685508044E11 ; 0.0
151 ; 1.3241734376153987E7 ; 1.212444030137823E9 ; 2.0609244447588754E9 ; 1.7268794202936298E11 ; 0.0
152 ; 1.3222094637731768E7 ; 1.2125027430004025E9 ; 2.0741661791350293E9 ; 1.739003860595008E11 ; 0.0
153 ; 1.3202695088618293E7 ; 1.2125613107760727E9 ; 2.087388273772761E9 ; 1.751128888025012E11 ; 0.0
154 ; 1.317771793314769E7 ; 1.212619731396914E9 ; 2.1005909688613794E9 ; 1.7632545011327725E11 ; 0.0
155 ; 1.3155586068013811E7 ; 1.2126780028206465E9 ; 2.113768686794527E9 ; 1.7753806984467416E11 ; 0.0
156 ; 1.3136000047300406E7 ; 1.2127361230300024E9 ; 2.126924272862541E9 ; 1.787507478474948E11 ; 0.0
157 ; 1.3116658493380643E7 ; 1.2127940900321212E9 ; 2.1400602729098413E9 ; 1.799634839705248E11 ; 0.0
158 ; 1.3088019733386204E7 ; 1.2128519018579667E9 ; 2.153176931403222E9 ; 1.8117627806055695E11 ; 0.0
159 ; 1.306676234312982E7 ; 1.2129095565617628E9 ; 2.166264951136608E9 ; 1.8238912996241492E11 ; 0.0
160 ; 1.3044701184791062E7 ; 1.2129670522204514E9 ; 2.1793317134797378E9 ; 1.8360203951897668E11 ; 0.0
161 ; 1.3017363019366683E7 ; 1.2130243869331675E9 ; 2.192376414664529E9 ; 1.8481500657119714E11 ; 0.0
162 ; 1.2998117074691508E7 ; 1.213081558820733E9 ; 2.2053937776838956E9 ; 1.860280309581303E11 ; 0.0
163 ; 1.2976675642461125E7 ; 1.2131385660251703E9 ; 2.218391894758587E9 ; 1.8724111251695105E11 ; 0.0
164 ; 1.2955072746275773E7 ; 1.213195406709229E9 ; 2.231368570401048E9 ; 1.8845425108297623E11 ; 0.0
165 ; 1.2916441905901711E7 ; 1.2132520790559309E9 ; 2.244323643147324E9 ; 1.8966744648968546E11 ; 0.0
166 ; 1.2900868674872989E7 ; 1.2133085812681317E9 ; 2.257240085053226E9 ; 1.908806985687414E11 ; 0.0
167 ; 1.2876790457085807E7 ; 1.2133649115680964E9 ; 2.270140953728099E9 ; 1.9209400715000952E11 ; 0.0
168 ; 1.2859234424466787E7 ; 1.2134210681970892E9 ; 2.2830177441851845E9 ; 1.933073720615776E11 ; 0.0
169 ; 1.2836300597966965E7 ; 1.213477049414978E9 ; 2.295876978609651E9 ; 1.945207931297747E11 ; 0.0
170 ; 1.2807485041375019E7 ; 1.2135328534998517E9 ; 2.308713279207618E9 ; 1.9573427017918967E11 ; 0.0
171 ; 1.2786170907919986E7 ; 1.213588478747652E9 ; 2.3215207642489934E9 ; 1.969478030326895E11 ; 0.0
172 ; 1.2766275665797504E7 ; 1.213643923471815E9 ; 2.3343069351569133E9 ; 1.9816139151143716E11 ; 0.0
173 ; 1.273774584820123E7 ; 1.2136991860029287E9 ; 2.347073210822711E9 ; 1.9937503543490897E11 ; 0.0
174 ; 1.2720711477385331E7 ; 1.213754264688397E9 ; 2.3598109566709123E9 ; 2.005887346209119E11 ; 0.0
175 ; 1.2705187890485253E7 ; 1.21380915789212E9 ; 2.372531668148298E9 ; 2.0180248888560028E11 ; 0.0
176 ; 1.268781595536441E7 ; 1.2138638639941816E9 ; 2.385236856038783E9 ; 2.030162980434924E11 ; 0.0
177 ; 1.2667738889888225E7 ; 1.21391838139055E9 ; 2.3979246719941473E9 ; 2.0423016190748657E11 ; 0.0
178 ; 1.2655658942820586E7 ; 1.213972708492785E9 ; 2.4105924108840356E9 ; 2.0544408028887714E11 ; 0.0
179 ; 1.2641960019546725E7 ; 1.2140268437277582E9 ; 2.423248069826856E9 ; 2.0665805299736993E11 ; 0.0
180 ; 1.2624761774141338E7 ; 1.2140807855373812E9 ; 2.4358900298464026E9 ; 2.078720798410977E11 ; 0.0
181 ; 1.2601790686202757E7 ; 1.2141345323783426E9 ; 2.448514791620544E9 ; 2.0908616062663507E11 ; 0.0
182 ; 1.2578696982930286E7 ; 1.2141880827218523E9 ; 2.4611165823067465E9 ; 2.1030029515901343E11 ; 0.0
183 ; 1.2562303149523264E7 ; 1.2142414350533986E9 ; 2.4736952792896767E9 ; 2.115144832417353E11 ; 0.0
184 ; 1.255467234010455E7 ; 1.2142945878725076E9 ; 2.4862575824392E9 ; 2.127287246767887E11 ; 0.0
185 ; 1.252805633018781E7 ; 1.2143475396925147E9 ; 2.4988122547793045E9 ; 2.139430192646612E11 ; 0.0
186 ; 1.2522156143305E7 ; 1.2144002890403419E9 ; 2.5113403111094923E9 ; 2.151573668043537E11 ; 0.0
187 ; 1.2495320019341946E7 ; 1.2144528344562821E9 ; 2.523862467252797E9 ; 2.1637176709339404E11 ; 0.0
188 ; 1.2480005990699662E7 ; 1.2145051744937918E9 ; 2.536357787272139E9 ; 2.175862199278503E11 ; 0.0
189 ; 1.2466381399352526E7 ; 1.214557307719288E9 ; 2.548837793262839E9 ; 2.1880072510234412E11 ; 0.0
190 ; 1.244324931760562E7 ; 1.2146092327119546E9 ; 2.5613041746621914E9 ; 2.2001528241006342E11 ; 0.0
191 ; 1.2423338716434855E7 ; 1.2146609480635529E9 ; 2.573747423979797E9 ; 2.2122989164277536E11 ; 0.0
192 ; 1.241449717124132E7 ; 1.2147124523782399E9 ; 2.586170762696232E9 ; 2.2244455259083893E11 ; 0.0
193 ; 1.2394258690014564E7 ; 1.2147637442723901E9 ; 2.598585259867473E9 ; 2.2365926504321716E11 ; 0.0
194 ; 1.2377709529562825E7 ; 1.2148148223744256E9 ; 2.6109795185574875E9 ; 2.2487402878748956E11 ; 0.0
195 ; 1.2357153444869611E7 ; 1.2148656853246503E9 ; 2.6233572280870504E9 ; 2.2608884360986398E11 ; 0.0
