CSV File for the Network on Day 232
1 - Minute m 
2 - Power Consumed at minute m 
3 - Power Produced at minute m 
4 - Energy Consumed since the beginning of the day 
5 - Energy Produced since the beginning of the day 
6 - Energy Lost since the beginning of the day 
 
0 ; 3707142.6032982385 ; 6.317364406115711E8 ; 0.0 ; 0.0 ; 0.0
1 ; 3741481.9028071035 ; 6.326141551831198E8 ; 3707142.6032982385 ; 6.317364406115711E8 ; 0.0
2 ; 3791186.966841841 ; 6.353458692891868E8 ; 7448624.506105342 ; 1.2643505957946908E9 ; 0.0
3 ; 3840773.381254076 ; 6.399320575790312E8 ; 1.1239811472947184E7 ; 1.8996964650838776E9 ; 0.0
4 ; 3898934.0069328835 ; 6.463733028089087E8 ; 1.5080584854201261E7 ; 2.5396285226629086E9 ; 0.0
5 ; 3969689.1334314737 ; 6.546703070071058E8 ; 1.8979518861134145E7 ; 3.186001825471817E9 ; 0.0
6 ; 4070249.263735513 ; 6.648238888168375E8 ; 2.294920799456562E7 ; 3.840672132478923E9 ; 0.0
7 ; 4200537.516017643 ; 6.768349540306265E8 ; 2.7019457258301135E7 ; 4.50549602129576E9 ; 0.0
8 ; 4384437.637334177 ; 6.907044253155638E8 ; 3.1219994774318777E7 ; 5.182330975326386E9 ; 0.0
9 ; 4676211.13040358 ; 7.064331258946586E8 ; 3.560443241165295E7 ; 5.873035400641951E9 ; 0.0
10 ; 5110742.9598396495 ; 7.24021635120237E8 ; 4.028064354205653E7 ; 6.57946852653661E9 ; 0.0
11 ; 5810075.301745303 ; 7.434701629316957E8 ; 4.539138650189618E7 ; 7.303490161656847E9 ; 0.0
12 ; 6921753.5966210775 ; 7.64778499389638E8 ; 5.120146180364148E7 ; 8.046960324588543E9 ; 0.0
13 ; 7979480.428254362 ; 7.879460651417376E8 ; 5.8123215400262564E7 ; 8.81173882397818E9 ; 0.0
14 ; 8115650.793356577 ; 8.129720369649858E8 ; 6.610269582851693E7 ; 9.599684889119917E9 ; 0.0
15 ; 8168407.321764761 ; 8.398554921922909E8 ; 7.421834662187351E7 ; 1.0412656926084904E10 ; 0.0
16 ; 8233264.043269405 ; 8.68595525031131E8 ; 8.238675394363828E7 ; 1.1252512418277195E10 ; 0.0
17 ; 8278627.534511052 ; 8.991913168382906E8 ; 9.062001798690769E7 ; 1.2121107943308327E10 ; 0.0
18 ; 8340766.706086734 ; 9.316421655854832E8 ; 9.889864552141875E7 ; 1.3020299260146618E10 ; 0.0
19 ; 8396195.13568679 ; 9.65947488516453E8 ; 1.0723941222750549E8 ; 1.3951941425732101E10 ; 0.0
20 ; 8447077.878157804 ; 1.0021068109819412E9 ; 1.1563560736319228E8 ; 1.4917888914248554E10 ; 0.0
21 ; 8510012.149267048 ; 1.040119750161242E9 ; 1.2408268524135008E8 ; 1.5919995725230495E10 ; 0.0
22 ; 8564781.716114076 ; 1.0799859984253044E9 ; 1.3259269739061713E8 ; 1.6960115475391737E10 ; 0.0
23 ; 8621712.994458564 ; 1.1217053084665148E9 ; 1.411574791067312E8 ; 1.804010147381704E10 ; 0.0
24 ; 8678809.162260901 ; 1.165277480861671E9 ; 1.4977919210118976E8 ; 1.9161806782283554E10 ; 0.0
25 ; 8732278.501921926 ; 1.202830599426254E9 ; 1.5845800126345065E8 ; 2.0327084263145226E10 ; 0.0
26 ; 8794786.974385407 ; 1.2028858194963562E9 ; 1.6719027976537257E8 ; 2.152991486257148E10 ; 0.0
27 ; 8841707.589296132 ; 1.202941648859155E9 ; 1.7598506673975798E8 ; 2.2732800682067837E10 ; 0.0
28 ; 8904111.986878473 ; 1.202997998382248E9 ; 1.8482677432905412E8 ; 2.393574233092699E10 ; 0.0
29 ; 8952657.84652153 ; 1.2030547939900517E9 ; 1.937308863159326E8 ; 2.513874032930924E10 ; 0.0
30 ; 9008289.497460147 ; 1.2031119737076566E9 ; 2.0268354416245413E8 ; 2.634179512329929E10 ; 0.0
31 ; 9057191.366470953 ; 1.2031694853425014E9 ; 2.1169183365991428E8 ; 2.7544907097006947E10 ; 0.0
32 ; 9109034.259353977 ; 1.2032272846578822E9 ; 2.2074902502638525E8 ; 2.874807658234945E10 ; 0.0
33 ; 9160457.559739023 ; 1.2032853339264627E9 ; 2.298580592857392E8 ; 2.995130386700733E10 ; 0.0
34 ; 9214297.305172216 ; 1.2033436007783778E9 ; 2.3901851684547824E8 ; 3.1154589200933796E10 ; 0.0
35 ; 9265041.048634194 ; 1.2034020572786942E9 ; 2.4823281415065044E8 ; 3.2357932801712173E10 ; 0.0
36 ; 9307248.582440503 ; 1.203460679184321E9 ; 2.5749785519928464E8 ; 3.3561334858990868E10 ; 0.0
37 ; 9358378.205835342 ; 1.2035194453420458E9 ; 2.6680510378172514E8 ; 3.4764795538175186E10 ; 0.0
38 ; 9395367.724336347 ; 1.2035783371981664E9 ; 2.761634819875605E8 ; 3.5968314983517235E10 ; 0.0
39 ; 9445899.672319563 ; 1.2036373383968477E9 ; 2.8555884971189684E8 ; 3.71718933207154E10 ; 0.0
40 ; 9488573.14797085 ; 1.2036964344494033E9 ; 2.950047493842164E8 ; 3.837553065911225E10 ; 0.0
41 ; 9526775.973134402 ; 1.2037556124605854E9 ; 3.044933225321873E8 ; 3.957922709356165E10 ; 0.0
42 ; 9562610.68673217 ; 1.203814860900931E9 ; 3.140200985053217E8 ; 4.078298270602224E10 ; 0.0
43 ; 9593601.918708084 ; 1.2038741694165199E9 ; 3.2358270919205385E8 ; 4.198679756692317E10 ; 0.0
44 ; 9635131.130172405 ; 1.2039335286692638E9 ; 3.3317631111076194E8 ; 4.319067173633969E10 ; 0.0
45 ; 9667954.088180238 ; 1.2039929302022407E9 ; 3.428114422409344E8 ; 4.439460526500896E10 ; 0.0
46 ; 9699229.06443806 ; 1.204052366325667E9 ; 3.524793963291146E8 ; 4.55985981952112E10 ; 0.0
47 ; 9733352.683860302 ; 1.2041118300199542E9 ; 3.6217862539355266E8 ; 4.6802650561536865E10 ; 0.0
48 ; 9759265.30529756 ; 1.2041713148529718E9 ; 3.7191197807741296E8 ; 4.8006762391556816E10 ; 0.0
49 ; 9783661.24126685 ; 1.2042308149091697E9 ; 3.816712433827105E8 ; 4.921093370640979E10 ; 0.0
50 ; 9812143.809056427 ; 1.2042903247286437E9 ; 3.9145490462397736E8 ; 5.041516452131896E10 ; 0.0
51 ; 9833274.886181764 ; 1.204349839254572E9 ; 4.0126704843303376E8 ; 5.161945484604761E10 ; 0.0
52 ; 9855075.724904802 ; 1.2044093537877192E9 ; 4.1110032331921554E8 ; 5.282380468530218E10 ; 0.0
53 ; 9877789.363362815 ; 1.2044688639469378E9 ; 4.209553990441203E8 ; 5.40282140390899E10 ; 0.0
54 ; 9894428.415261049 ; 1.2045283656347687E9 ; 4.308331884074831E8 ; 5.5232682903036835E10 ; 0.0
55 ; 9923179.4569007 ; 1.2045878550073981E9 ; 4.4072761682274413E8 ; 5.64372112686716E10 ; 0.0
56 ; 9938857.09245338 ; 1.2046473284483418E9 ; 4.5065079627964485E8 ; 5.7641799123679E10 ; 0.0
57 ; 9963218.587498836 ; 1.2047067825453377E9 ; 4.605896533720982E8 ; 5.884644645212734E10 ; 0.0
58 ; 9986344.12799735 ; 1.204766214069997E9 ; 4.7055287195959705E8 ; 6.005115323467268E10 ; 0.0
59 ; 1.001140336640282E7 ; 1.204825619959844E9 ; 4.805392160875944E8 ; 6.125591944874268E10 ; 0.0
60 ; 1.00215372707722E7 ; 1.2048849973024251E9 ; 4.905506194539972E8 ; 6.246074506870253E10 ; 0.0
61 ; 1.0043390196428562E7 ; 1.2049443433212128E9 ; 5.005721567247694E8 ; 6.366563006600495E10 ; 0.0
62 ; 1.0060389986562312E7 ; 1.2050036553630817E9 ; 5.1061554692119795E8 ; 6.4870574409326164E10 ; 0.0
63 ; 1.0086950234119553E7 ; 1.2050629308871484E9 ; 5.2067593690776026E8 ; 6.607557806468925E10 ; 0.0
64 ; 1.010121699040163E7 ; 1.2051221674548104E9 ; 5.307628871418798E8 ; 6.728064099557639E10 ; 0.0
65 ; 1.012103220081386E7 ; 1.2051813627208414E9 ; 5.408641041322814E8 ; 6.8485763163031204E10 ; 0.0
66 ; 1.0142370545831854E7 ; 1.2052405144254045E9 ; 5.509851363330953E8 ; 6.969094452575204E10 ; 0.0
67 ; 1.01576448377549E7 ; 1.2052996203868878E9 ; 5.611275068789271E8 ; 7.089618504017744E10 ; 0.0
68 ; 1.0172745131823068E7 ; 1.2053586784954584E9 ; 5.71285151716682E8 ; 7.210148466056433E10 ; 0.0
69 ; 1.0189301002003567E7 ; 1.205417686707254E9 ; 5.81457896848505E8 ; 7.330684333905978E10 ; 0.0
70 ; 1.020790073497189E7 ; 1.2054766430391424E9 ; 5.916471978505086E8 ; 7.451226102576704E10 ; 0.0
71 ; 1.0223406170895446E7 ; 1.2055355455639834E9 ; 6.018550985854805E8 ; 7.571773766880618E10 ; 0.0
72 ; 1.0240827721203169E7 ; 1.2055943924063396E9 ; 6.120785047563759E8 ; 7.692327321437016E10 ; 0.0
73 ; 1.026024270403398E7 ; 1.2056531817385852E9 ; 6.223193324775791E8 ; 7.81288676067765E10 ; 0.0
74 ; 1.027312212182828E7 ; 1.2057119117773764E9 ; 6.325795751816131E8 ; 7.933452078851509E10 ; 0.0
75 ; 1.0294052835784676E7 ; 1.205770580780438E9 ; 6.428526973034414E8 ; 8.054023270029247E10 ; 0.0
76 ; 1.030276573311787E7 ; 1.205829187043638E9 ; 6.531467501392261E8 ; 8.17460032810729E10 ; 0.0
77 ; 1.0320997831254613E7 ; 1.2058877288983216E9 ; 6.634495158723439E8 ; 8.295183246811655E10 ; 0.0
78 ; 1.03154204265569E7 ; 1.2059462047088754E9 ; 6.737705137035985E8 ; 8.415772019701486E10 ; 0.0
79 ; 1.0326052991120879E7 ; 1.2060046128705006E9 ; 6.840859341301554E8 ; 8.536366640172374E10 ; 0.0
80 ; 1.0321310077937622E7 ; 1.2060629518071768E9 ; 6.944119871212764E8 ; 8.656967101459424E10 ; 0.0
81 ; 1.0337002439440016E7 ; 1.2061212199697936E9 ; 7.04733297199214E8 ; 8.777573396640141E10 ; 0.0
82 ; 1.033154421893224E7 ; 1.2061794158344386E9 ; 7.15070299638654E8 ; 8.89818551863712E10 ; 0.0
83 ; 1.03243242400424E7 ; 1.2062375379008238E9 ; 7.254018438575863E8 ; 9.018803460220564E10 ; 0.0
84 ; 1.0330807523763152E7 ; 1.2062955846908398E9 ; 7.357261680976287E8 ; 9.139427214010646E10 ; 0.0
85 ; 1.0331483293159286E7 ; 1.2063535547472239E9 ; 7.460569756213919E8 ; 9.26005677247973E10 ; 0.0
86 ; 1.033231487708684E7 ; 1.2064114466323352E9 ; 7.563884589145511E8 ; 9.380692127954453E10 ; 0.0
87 ; 1.0328861567909699E7 ; 1.2064692589270227E9 ; 7.66720773791638E8 ; 9.501333272617686E10 ; 0.0
88 ; 1.0326989729769737E7 ; 1.2065269902295828E9 ; 7.770496353595477E8 ; 9.621980198510388E10 ; 0.0
89 ; 1.0328865044577917E7 ; 1.2065846391547937E9 ; 7.873766250893174E8 ; 9.742632897533347E10 ; 0.0
90 ; 1.0325572093879633E7 ; 1.206642204333027E9 ; 7.977054901338954E8 ; 9.863291361448827E10 ; 0.0
91 ; 1.0320961725618497E7 ; 1.2066996844094183E9 ; 8.08031062227775E8 ; 9.983955581882129E10 ; 0.0
92 ; 1.0326765051334806E7 ; 1.2067570780431075E9 ; 8.183520239533935E8 ; 1.0104625550323071E11 ; 0.0
93 ; 1.0317435162719952E7 ; 1.2068143839065285E9 ; 8.286787890047283E8 ; 1.0225301258127382E11 ; 0.0
94 ; 1.0322304493685247E7 ; 1.2068716006847525E9 ; 8.389962241674483E8 ; 1.0345982696518034E11 ; 0.0
95 ; 1.0315865307347078E7 ; 1.2069287270748794E9 ; 8.493185286611335E8 ; 1.046666985658651E11 ; 0.0
96 ; 1.0312930342975834E7 ; 1.2069857617854707E9 ; 8.596343939684806E8 ; 1.0587362729293997E11 ; 0.0
97 ; 1.0308211750670537E7 ; 1.2070427035360224E9 ; 8.699473243114564E8 ; 1.0708061305472545E11 ; 0.0
98 ; 1.0303528251748247E7 ; 1.2070995510564773E9 ; 8.80255536062127E8 ; 1.0828765575826147E11 ; 0.0
99 ; 1.0303122181262814E7 ; 1.2071563030867677E9 ; 8.905590643138752E8 ; 1.0949475530931795E11 ; 0.0
100 ; 1.0296811590967724E7 ; 1.2072129583763914E9 ; 9.00862186495138E8 ; 1.1070191161240471E11 ; 0.0
101 ; 1.0287100322770106E7 ; 1.207269515684017E9 ; 9.111589980861058E8 ; 1.119091245707811E11 ; 0.0
102 ; 1.0288097010155782E7 ; 1.2073259737771144E9 ; 9.21446098408876E8 ; 1.1311639408646512E11 ; 0.0
103 ; 1.0285747909096554E7 ; 1.207382331431612E9 ; 9.317341954190317E8 ; 1.1432372006024223E11 ; 0.0
104 ; 1.0273639889157526E7 ; 1.2074385874315734E9 ; 9.420199433281283E8 ; 1.1553110239167384E11 ; 0.0
105 ; 1.027448913009967E7 ; 1.2074947405689015E9 ; 9.522935832172859E8 ; 1.1673854097910542E11 ; 0.0
106 ; 1.0267318267599886E7 ; 1.207550789643056E9 ; 9.625680723473855E8 ; 1.1794603571967433E11 ; 0.0
107 ; 1.0256609183731018E7 ; 1.2076067334607913E9 ; 9.728353906149855E8 ; 1.1915358650931738E11 ; 0.0
108 ; 1.0252941299700256E7 ; 1.2076625708359156E9 ; 9.830919997987164E8 ; 1.2036119324277817E11 ; 0.0
109 ; 1.0242068397531202E7 ; 1.2077183005890577E9 ; 9.933449410984167E8 ; 1.2156885581361409E11 ; 0.0
110 ; 1.0238392660533467E7 ; 1.207773921547457E9 ; 1.0035870094959478E9 ; 1.2277657411420314E11 ; 0.0
111 ; 1.023451312926303E7 ; 1.2078294325447605E9 ; 1.0138254021564813E9 ; 1.239843480357506E11 ; 0.0
112 ; 1.022891465520084E7 ; 1.2078848324208379E9 ; 1.0240599152857443E9 ; 1.2519217746829535E11 ; 0.0
113 ; 1.021130118686237E7 ; 1.2079401200216036E9 ; 1.0342888299409451E9 ; 1.2640006230071619E11 ; 0.0
114 ; 1.0203027851237897E7 ; 1.2079952941988544E9 ; 1.0445001311278075E9 ; 1.276080024207378E11 ; 0.0
115 ; 1.0198817685871806E7 ; 1.208050353810115E9 ; 1.0547031589790454E9 ; 1.2881599771493665E11 ; 0.0
116 ; 1.0187359939493395E7 ; 1.2081052977184944E9 ; 1.0649019766649172E9 ; 1.3002404806874677E11 ; 0.0
117 ; 1.0176484505123716E7 ; 1.2081601247925491E9 ; 1.0750893366044106E9 ; 1.3123215336646526E11 ; 0.0
118 ; 1.0167633097367585E7 ; 1.2082148339061587E9 ; 1.0852658211095343E9 ; 1.3244031349125781E11 ; 0.0
119 ; 1.0163344237793554E7 ; 1.2082694239384058E9 ; 1.0954334542069018E9 ; 1.3364852832516397E11 ; 0.0
120 ; 1.0154455530139554E7 ; 1.2083238937734647E9 ; 1.1055967984446952E9 ; 1.3485679774910237E11 ; 0.0
121 ; 1.0135463751643006E7 ; 1.2083782423004994E9 ; 1.1157512539748347E9 ; 1.3606512164287584E11 ; 0.0
122 ; 1.0128241003425244E7 ; 1.208432468413563E9 ; 1.1258867177264776E9 ; 1.3727349988517635E11 ; 0.0
123 ; 1.0114270150559967E7 ; 1.208486571011508E9 ; 1.136014958729903E9 ; 1.384819323535899E11 ; 0.0
124 ; 1.0110670283727566E7 ; 1.2085405489979005E9 ; 1.146129228880463E9 ; 1.396904189246014E11 ; 0.0
125 ; 1.0096120625899391E7 ; 1.2085944012809386E9 ; 1.1562398991641905E9 ; 1.408989594735993E11 ; 0.0
126 ; 1.0079270442124348E7 ; 1.2086481267733793E9 ; 1.1663360197900898E9 ; 1.4210755387488025E11 ; 0.0
127 ; 1.0070780940404814E7 ; 1.2087017243924658E9 ; 1.1764152902322142E9 ; 1.4331620200165363E11 ; 0.0
128 ; 1.0059144221657528E7 ; 1.208755193059863E9 ; 1.186486071172619E9 ; 1.4452490372604608E11 ; 0.0
129 ; 1.004616521822459E7 ; 1.2088085317015958E9 ; 1.1965452153942766E9 ; 1.4573365891910596E11 ; 0.0
130 ; 1.0023088750299033E7 ; 1.2088617392479897E9 ; 1.2065913806125011E9 ; 1.4694246745080756E11 ; 0.0
131 ; 1.0002863148001313E7 ; 1.2089148146336195E9 ; 1.2166144693628001E9 ; 1.4815132919005554E11 ; 0.0
132 ; 9972427.252121031 ; 1.2089677567972565E9 ; 1.2266173325108013E9 ; 1.4936024400468915E11 ; 0.0
133 ; 9946721.160722768 ; 1.2090205646818223E9 ; 1.2365897597629223E9 ; 1.505692117614864E11 ; 0.0
134 ; 9917998.489726426 ; 1.2090732372343452E9 ; 1.246536480923645E9 ; 1.517782323261682E11 ; 0.0
135 ; 9888928.743361829 ; 1.2091257734059184E9 ; 1.2564544794133716E9 ; 1.5298730556340256E11 ; 0.0
136 ; 9862930.836769436 ; 1.2091781721516623E9 ; 1.2663434081567333E9 ; 1.5419643133680847E11 ; 0.0
137 ; 9832153.009891108 ; 1.2092304324306889E9 ; 1.2762063389935026E9 ; 1.5540560950896014E11 ; 0.0
138 ; 9800621.307636151 ; 1.2092825532060685E9 ; 1.2860384920033937E9 ; 1.5661483994139084E11 ; 0.0
139 ; 9778947.216218242 ; 1.2093345334447994E9 ; 1.29583911331103E9 ; 1.578241224945969E11 ; 0.0
140 ; 9744576.0292921 ; 1.209386372117779E9 ; 1.3056180605272481E9 ; 1.590334570280417E11 ; 0.0
141 ; 9724131.886675153 ; 1.2094380681997771E9 ; 1.3153626365565403E9 ; 1.6024284340015945E11 ; 0.0
142 ; 9692239.738528613 ; 1.2094896206694126E9 ; 1.3250867684432154E9 ; 1.6145228146835922E11 ; 0.0
143 ; 9660910.387532229 ; 1.2095410285091302E9 ; 1.334779008181744E9 ; 1.6266177108902863E11 ; 0.0
144 ; 9629642.907706922 ; 1.2095922907051797E9 ; 1.3444399185692763E9 ; 1.6387131211753775E11 ; 0.0
145 ; 9619600.088194534 ; 1.2096434062475977E9 ; 1.3540695614769833E9 ; 1.6508090440824292E11 ; 0.0
146 ; 9604482.14883273 ; 1.2096943741301885E9 ; 1.363689161565178E9 ; 1.662905478144905E11 ; 0.0
147 ; 9597616.57228458 ; 1.2097451933505101E9 ; 1.3732936437140107E9 ; 1.675002421886207E11 ; 0.0
148 ; 9575266.799550008 ; 1.2097958629098597E9 ; 1.3828912602862954E9 ; 1.6870998738197122E11 ; 0.0
149 ; 9560885.929737559 ; 1.2098463818132582E9 ; 1.3924665270858455E9 ; 1.6991978324488107E11 ; 0.0
150 ; 9561483.776969604 ; 1.2098967490694406E9 ; 1.402027413015583E9 ; 1.7112962962669434E11 ; 0.0
151 ; 9535635.741576225 ; 1.209946963690846E9 ; 1.4115888967925527E9 ; 1.7233952637576376E11 ; 0.0
152 ; 9524945.053923907 ; 1.2099970246936054E9 ; 1.421124532534129E9 ; 1.7354947333945462E11 ; 0.0
153 ; 9513293.50572738 ; 1.2100469310975358E9 ; 1.4306494775880527E9 ; 1.7475947036414822E11 ; 0.0
154 ; 9499720.666176334 ; 1.2100966819261322E9 ; 1.44016277109378E9 ; 1.7596951729524576E11 ; 0.0
155 ; 9480483.914312271 ; 1.2101462762065606E9 ; 1.4496624917599564E9 ; 1.7717961397717188E11 ; 0.0
156 ; 9471448.761074746 ; 1.210195712969654E9 ; 1.4591429756742687E9 ; 1.7838976025337845E11 ; 0.0
157 ; 9456778.708604274 ; 1.2102449912499065E9 ; 1.4686144244353435E9 ; 1.795999559663481E11 ; 0.0
158 ; 9440803.156247415 ; 1.2102941100854712E9 ; 1.4780712031439478E9 ; 1.8081020095759802E11 ; 0.0
159 ; 9426679.321514234 ; 1.2103430685181556E9 ; 1.4875120063001952E9 ; 1.820204950676835E11 ; 0.0
160 ; 9413074.346901104 ; 1.2103918655934212E9 ; 1.4969386856217093E9 ; 1.8323083813620166E11 ; 0.0
161 ; 9393577.621307965 ; 1.2104405003603818E9 ; 1.5063517599686105E9 ; 1.8444123000179507E11 ; 0.0
162 ; 9385597.65864159 ; 1.2104889718718023E9 ; 1.5157453375899184E9 ; 1.8565167050215546E11 ; 0.0
163 ; 9368328.241027005 ; 1.2105372791840985E9 ; 1.52513093524856E9 ; 1.8686215947402725E11 ; 0.0
164 ; 9356150.115112247 ; 1.2105854213573399E9 ; 1.534499263489587E9 ; 1.8807269675321136E11 ; 0.0
165 ; 9342870.390171103 ; 1.2106333974552474E9 ; 1.5438554136046994E9 ; 1.892832821745687E11 ; 0.0
166 ; 9331255.195149774 ; 1.2106812065451992E9 ; 1.5531982839948704E9 ; 1.9049391557202396E11 ; 0.0
167 ; 9314384.870802995 ; 1.21072884769823E9 ; 1.56252953919002E9 ; 1.9170459677856915E11 ; 0.0
168 ; 9303718.882281851 ; 1.2107763199890347E9 ; 1.571843924060823E9 ; 1.929153256262674E11 ; 0.0
169 ; 9285558.994465597 ; 1.2108236224959726E9 ; 1.5811476429431047E9 ; 1.9412610194625644E11 ; 0.0
170 ; 9271113.928144444 ; 1.2108707543010705E9 ; 1.5904332019375703E9 ; 1.953369255687524E11 ; 0.0
171 ; 9249856.962293208 ; 1.2109177144900267E9 ; 1.5997043158657148E9 ; 1.9654779632305347E11 ; 0.0
172 ; 9235514.03026219 ; 1.210964502152217E9 ; 1.608954172828008E9 ; 1.977587140375435E11 ; 0.0
173 ; 9225451.22023154 ; 1.2110111163806977E9 ; 1.6181896868582702E9 ; 1.989696785396957E11 ; 0.0
174 ; 9214690.35569477 ; 1.211057556272213E9 ; 1.6274151380785017E9 ; 2.0018068965607642E11 ; 0.0
175 ; 9206592.203336537 ; 1.211103820927199E9 ; 1.6366298284341965E9 ; 2.0139174721234863E11 ; 0.0
176 ; 9190271.626550352 ; 1.2111499094497914E9 ; 1.645836420637533E9 ; 2.0260285103327582E11 ; 0.0
177 ; 9183688.820217248 ; 1.2111958209478314E9 ; 1.6550266922640834E9 ; 2.0381400094272562E11 ; 0.0
178 ; 9177443.260364337 ; 1.2112415545328717E9 ; 1.6642103810843005E9 ; 2.0502519676367346E11 ; 0.0
179 ; 9173583.645825244 ; 1.211287109320185E9 ; 1.6733878243446648E9 ; 2.0623643831820633E11 ; 0.0
180 ; 9157353.631139036 ; 1.2113324844287696E9 ; 1.68256140799049E9 ; 2.0744772542752652E11 ; 0.0
181 ; 9151792.78813491 ; 1.2113776789813585E9 ; 1.691718761621629E9 ; 2.086590579119553E11 ; 0.0
182 ; 9135110.743461417 ; 1.2114226921044257E9 ; 1.7008705544097638E9 ; 2.0987043559093665E11 ; 0.0
183 ; 9124402.048246622 ; 1.211467522928197E9 ; 1.7100056651532252E9 ; 2.1108185828304108E11 ; 0.0
184 ; 9117413.126713948 ; 1.2115121705866537E9 ; 1.7191300672014718E9 ; 2.1229332580596927E11 ; 0.0
185 ; 9113545.242733367 ; 1.211556634217546E9 ; 1.7282474803281858E9 ; 2.135048379765559E11 ; 0.0
186 ; 9097882.790010966 ; 1.2116009129623988E9 ; 1.7373610255709193E9 ; 2.1471639461077347E11 ; 0.0
187 ; 9083565.94605449 ; 1.2116450059665208E9 ; 1.7464589083609302E9 ; 2.1592799552373587E11 ; 0.0
188 ; 9076842.582777476 ; 1.2116889123790145E9 ; 1.7555424743069847E9 ; 2.171396405297024E11 ; 0.0
189 ; 9071825.309832502 ; 1.2117326313527846E9 ; 1.7646193168897622E9 ; 2.1835132944208142E11 ; 0.0
190 ; 9056743.23260637 ; 1.211776162044548E9 ; 1.7736911421995947E9 ; 2.195630620734342E11 ; 0.0
191 ; 9049465.171026988 ; 1.211819503614842E9 ; 1.7827478854322011E9 ; 2.2077483823547876E11 ; 0.0
192 ; 9038026.515373997 ; 1.2118626552280364E9 ; 1.791797350603228E9 ; 2.219866577390936E11 ; 0.0
193 ; 9024146.431762753 ; 1.2119056160523405E9 ; 1.800835377118602E9 ; 2.2319852039432162E11 ; 0.0
194 ; 9017581.521854253 ; 1.2119483852598155E9 ; 1.8098595235503647E9 ; 2.2441042601037396E11 ; 0.0
195 ; 9007009.82244198 ; 1.2119909620263822E9 ; 1.818877105072219E9 ; 2.256223743956338E11 ; 0.0
196 ; 8993118.145173663 ; 1.2120333455318334E9 ; 1.827884114894661E9 ; 2.2683436535766016E11 ; 0.0
197 ; 8988639.307180788 ; 1.2120755349598424E9 ; 1.8368772330398345E9 ; 2.28046398703192E11 ; 0.0
198 ; 8980575.832540039 ; 1.2121175294979744E9 ; 1.8458658723470154E9 ; 2.2925847423815182E11 ; 0.0
