CSV File for the Network on Day 326
1 - Minute m 
2 - Power Consumed at minute m 
3 - Power Produced at minute m 
4 - Energy Consumed since the beginning of the day 
5 - Energy Produced since the beginning of the day 
6 - Energy Lost since the beginning of the day 
 
0 ; 3.884873024957239E7 ; 6.374496792434192E8 ; 0.0 ; 0.0 ; 0.0
1 ; 3.8893320016313516E7 ; 6.383598342475854E8 ; 3.884873024957239E7 ; 6.374496792434192E8 ; 0.0
2 ; 3.8936745231684476E7 ; 6.411234652863629E8 ; 7.77420502658859E7 ; 1.2758095134910045E9 ; 0.0
3 ; 3.898271788226516E7 ; 6.45740584145218E8 ; 1.1667879549757038E8 ; 1.9169329787773674E9 ; 0.0
4 ; 3.903339778487878E7 ; 6.522112013311614E8 ; 1.5566151337983555E8 ; 2.5626735629225855E9 ; 0.0
5 ; 3.9108329194277704E7 ; 6.605353260333638E8 ; 1.9469491116471434E8 ; 3.214884764253747E9 ; 0.0
6 ; 3.920192833588927E7 ; 6.70712966088273E8 ; 2.3380324035899204E8 ; 3.875420090287111E9 ; 0.0
7 ; 3.932916616731632E7 ; 6.827441279495438E8 ; 2.730051686948813E8 ; 4.546133056375383E9 ; 0.0
8 ; 3.952131002801202E7 ; 6.966288166630478E8 ; 3.1233433486219764E8 ; 5.228877184324927E9 ; 0.0
9 ; 3.980127018483706E7 ; 7.123670358471942E8 ; 3.518556448902097E8 ; 5.925506000987975E9 ; 0.0
10 ; 4.024242813882047E7 ; 7.299587876787418E8 ; 3.916569150750467E8 ; 6.637873036835169E9 ; 0.0
11 ; 4.093126606646232E7 ; 7.494040728842314E8 ; 4.318993432138672E8 ; 7.36783182451391E9 ; 0.0
12 ; 4.203489539812842E7 ; 7.707028907371219E8 ; 4.728306092803295E8 ; 8.117235897398142E9 ; 0.0
13 ; 4.310159761745064E7 ; 7.938552390606549E8 ; 5.14865504678458E8 ; 8.887938788135263E9 ; 0.0
14 ; 4.323052214897407E7 ; 8.188611142364213E8 ; 5.579671022959086E8 ; 9.681794027195919E9 ; 0.0
15 ; 4.328271252007948E7 ; 8.457205112185488E8 ; 6.011976244448826E8 ; 1.050065514143234E10 ; 0.0
16 ; 4.332835823332001E7 ; 8.744334235533836E8 ; 6.444803369649621E8 ; 1.134637565265089E10 ; 0.0
17 ; 4.338694214616856E7 ; 9.049998434044772E8 ; 6.878086951982821E8 ; 1.2220809076204273E10 ; 0.0
18 ; 4.344003527013937E7 ; 9.374197615826592E8 ; 7.311956373444507E8 ; 1.3125808919608751E10 ; 0.0
19 ; 4.34893529706174E7 ; 9.716931675809187E8 ; 7.7463567261459E8 ; 1.406322868119141E10 ; 0.0
20 ; 4.354044791424412E7 ; 1.0078200496137893E9 ; 8.181250255852075E8 ; 1.503492184877233E10 ; 0.0
21 ; 4.359233211282888E7 ; 1.045800394660894E9 ; 8.616654734994516E8 ; 1.6042741898386118E10 ; 0.0
22 ; 4.3648005562526666E7 ; 1.0856341885142782E9 ; 9.052578056122805E8 ; 1.7088542293047012E10 ; 0.0
23 ; 4.370033767575679E7 ; 1.1273214158291373E9 ; 9.489058111748072E8 ; 1.817417648156129E10 ; 0.0
24 ; 4.375162537750989E7 ; 1.1708620601775277E9 ; 9.92606148850564E8 ; 1.9301497897390427E10 ; 0.0
25 ; 4.380398811476572E7 ; 1.2083843494937415E9 ; 1.0363577742280738E9 ; 2.0472359957567955E10 ; 0.0
26 ; 4.385824468219519E7 ; 1.2084095523540843E9 ; 1.0801617623428395E9 ; 2.1680744307061695E10 ; 0.0
27 ; 4.3912735747597665E7 ; 1.208436265186402E9 ; 1.1240200070250347E9 ; 2.288915385941578E10 ; 0.0
28 ; 4.395847258084957E7 ; 1.208464467812105E9 ; 1.1679327427726324E9 ; 2.409759012460218E10 ; 0.0
29 ; 4.401301212961832E7 ; 1.2084941392678866E9 ; 1.211891215353482E9 ; 2.5306054592414284E10 ; 0.0
30 ; 4.406416798200864E7 ; 1.208525257868441E9 ; 1.2559042274831004E9 ; 2.651454873168217E10 ; 0.0
31 ; 4.41111476090617E7 ; 1.2085578012692573E9 ; 1.299968395465109E9 ; 2.7723073989550613E10 ; 0.0
32 ; 4.4163702691097274E7 ; 1.2085917465291307E9 ; 1.3440795430741708E9 ; 2.893163179081987E10 ; 0.0
33 ; 4.419844233884064E7 ; 1.2086270701720529E9 ; 1.388243245765268E9 ; 3.0140223537349E10 ; 0.0
34 ; 4.425133046515831E7 ; 1.20866374824817E9 ; 1.4324416881041088E9 ; 3.1348850607521053E10 ; 0.0
35 ; 4.429578501879255E7 ; 1.2087017563935156E9 ; 1.476693018569267E9 ; 3.2557514355769222E10 ; 0.0
36 ; 4.434031870076198E7 ; 1.2087410698882713E9 ; 1.5209888035880597E9 ; 3.376621611216274E10 ; 0.0
37 ; 4.437670679273854E7 ; 1.2087816637133179E9 ; 1.5653291222888217E9 ; 3.497495718205101E10 ; 0.0
38 ; 4.4416226382314816E7 ; 1.2088235126048865E9 ; 1.6097058290815601E9 ; 3.618373884576433E10 ; 0.0
39 ; 4.445451925285582E7 ; 1.2088665911071334E9 ; 1.654122055463875E9 ; 3.739256235836922E10 ; 0.0
40 ; 4.44894439290088E7 ; 1.2089108736225016E9 ; 1.6985765747167308E9 ; 3.860142894947635E10 ; 0.0
41 ; 4.452543510609456E7 ; 1.2089563344597545E9 ; 1.7430660186457396E9 ; 3.9810339823098854E10 ; 0.0
42 ; 4.456589333301069E7 ; 1.2090029478795915E9 ; 1.7875914537518342E9 ; 4.101929615755861E10 ; 0.0
43 ; 4.4590923501468554E7 ; 1.209050688137787E9 ; 1.8321573470848448E9 ; 4.22282991054382E10 ; 0.0
44 ; 4.461842842053099E7 ; 1.2090995295258088E9 ; 1.8767482705863135E9 ; 4.343734979357599E10 ; 0.0
45 ; 4.4643894568241656E7 ; 1.2091494464088988E9 ; 1.9213666990068445E9 ; 4.46464493231018E10 ; 0.0
46 ; 4.4673872941877216E7 ; 1.209200413261617E9 ; 1.966010593575086E9 ; 4.58555987695107E10 ; 0.0
47 ; 4.469919171277891E7 ; 1.2092524047008672E9 ; 2.0106844665169632E9 ; 4.7064799182772316E10 ; 0.0
48 ; 4.471740450209047E7 ; 1.2093053955164366E9 ; 2.055383658229742E9 ; 4.827405158747318E10 ; 0.0
49 ; 4.47321294846679E7 ; 1.2093593606991003E9 ; 2.1001010627318325E9 ; 4.948335698298962E10 ; 0.0
50 ; 4.4755879912127554E7 ; 1.2094142754663448E9 ; 2.1448331922165003E9 ; 5.069271634368871E10 ; 0.0
51 ; 4.477105215425259E7 ; 1.2094701152857864E9 ; 2.189589072128628E9 ; 5.190213061915506E10 ; 0.0
52 ; 4.479197585322626E7 ; 1.2095268558963594E9 ; 2.2343601242828803E9 ; 5.311160073444085E10 ; 0.0
53 ; 4.4803956871814474E7 ; 1.2095844733273582E9 ; 2.2791521001361065E9 ; 5.432112759033721E10 ; 0.0
54 ; 4.482082600500327E7 ; 1.2096429439154272E9 ; 2.3239560570079207E9 ; 5.5530712063664566E10 ; 0.0
55 ; 4.483505692874074E7 ; 1.2097022443195896E9 ; 2.368776883012924E9 ; 5.6740355007579994E10 ; 0.0
56 ; 4.485084827602118E7 ; 1.2097623515344176E9 ; 2.4136119399416647E9 ; 5.795005725189958E10 ; 0.0
57 ; 4.485702511799377E7 ; 1.2098232429014359E9 ; 2.4584627882176857E9 ; 5.9159819603434E10 ; 0.0
58 ; 4.48772513977084E7 ; 1.2098848961188674E9 ; 2.5033198133356795E9 ; 6.0369642846335434E10 ; 0.0
59 ; 4.4890724570523635E7 ; 1.2099472892498133E9 ; 2.548197064733388E9 ; 6.15795277424543E10 ; 0.0
60 ; 4.490198011762129E7 ; 1.2100104007289715E9 ; 2.5930877893039117E9 ; 6.278947503170412E10 ; 0.0
61 ; 4.491703519253756E7 ; 1.2100742093679903E9 ; 2.637989769421533E9 ; 6.399948543243309E10 ; 0.0
62 ; 4.492872154133938E7 ; 1.2101386943595505E9 ; 2.682906804614071E9 ; 6.520955964180108E10 ; 0.0
63 ; 4.4940070555422194E7 ; 1.210203835280271E9 ; 2.7278355261554103E9 ; 6.641969833616063E10 ; 0.0
64 ; 4.494895195031246E7 ; 1.2102696120925286E9 ; 2.7727755967108326E9 ; 6.76299021714409E10 ; 0.0
65 ; 4.495758483397134E7 ; 1.2103360051452746E9 ; 2.817724548661145E9 ; 6.884017178353343E10 ; 0.0
66 ; 4.497715239370456E7 ; 1.2104029951739364E9 ; 2.8626821334951167E9 ; 7.005050778867871E10 ; 0.0
67 ; 4.498598632148654E7 ; 1.2104705632994802E9 ; 2.907659285888821E9 ; 7.126091078385265E10 ; 0.0
68 ; 4.499420041259495E7 ; 1.210538691026712E9 ; 2.9526452722103076E9 ; 7.247138134715213E10 ; 0.0
69 ; 4.500417194508516E7 ; 1.210607360241887E9 ; 2.9976394726229024E9 ; 7.368192003817885E10 ; 0.0
70 ; 4.5012407517356694E7 ; 1.2106765532096999E9 ; 3.0426436445679874E9 ; 7.489252739842073E10 ; 0.0
71 ; 4.501517672783513E7 ; 1.2107462525697098E9 ; 3.0876560520853443E9 ; 7.610320395163043E10 ; 0.0
72 ; 4.503646188221953E7 ; 1.2108164413322744E9 ; 3.1326712288131795E9 ; 7.731395020420013E10 ; 0.0
73 ; 4.504042754555765E7 ; 1.2108871028740375E9 ; 3.177707690695399E9 ; 7.852476664553241E10 ; 0.0
74 ; 4.50485883411992E7 ; 1.2109582209330268E9 ; 3.2227481182409563E9 ; 7.973565374840645E10 ; 0.0
75 ; 4.505363802268073E7 ; 1.2110297796034129E9 ; 3.2677967065821557E9 ; 8.094661196933948E10 ; 0.0
76 ; 4.506464460342678E7 ; 1.2111017633299732E9 ; 3.3128503446048365E9 ; 8.215764174894289E10 ; 0.0
77 ; 4.506772482007401E7 ; 1.211174156902301E9 ; 3.3579149892082634E9 ; 8.336874351227286E10 ; 0.0
78 ; 4.505628946139561E7 ; 1.2112469454488027E9 ; 3.4029827140283375E9 ; 8.457991766917516E10 ; 0.0
79 ; 4.5056210820113614E7 ; 1.2113201144305153E9 ; 3.448039003489733E9 ; 8.579116461462396E10 ; 0.0
80 ; 4.504549718305185E7 ; 1.2113936496347814E9 ; 3.493095214309847E9 ; 8.700248472905447E10 ; 0.0
81 ; 4.504570402772036E7 ; 1.2114675371688063E9 ; 3.538140711492899E9 ; 8.821387837868925E10 ; 0.0
82 ; 4.503370894867033E7 ; 1.2115417634531322E9 ; 3.5831864155206194E9 ; 8.942534591585806E10 ; 0.0
83 ; 4.502374675316104E7 ; 1.2116163152150464E9 ; 3.62822012446929E9 ; 9.063688767931119E10 ; 0.0
84 ; 4.501536673129516E7 ; 1.2116911794819536E9 ; 3.6732438712224507E9 ; 9.184850399452623E10 ; 0.0
85 ; 4.500364772983709E7 ; 1.211766343574729E9 ; 3.718259237953746E9 ; 9.306019517400818E10 ; 0.0
86 ; 4.500219876699437E7 ; 1.2118417951010728E9 ; 3.763262885683583E9 ; 9.42719615175829E10 ; 0.0
87 ; 4.4982679191171825E7 ; 1.2119175219488816E9 ; 3.8082650844505773E9 ; 9.548380331268398E10 ; 0.0
88 ; 4.4981946354873426E7 ; 1.211993512279653E9 ; 3.853247763641749E9 ; 9.669572083463286E10 ; 0.0
89 ; 4.496185005025266E7 ; 1.2120697545219364E9 ; 3.8982297099966226E9 ; 9.79077143469125E10 ; 0.0
90 ; 4.495445562622385E7 ; 1.212146237364843E9 ; 3.943191560046875E9 ; 9.911978410143445E10 ; 0.0
91 ; 4.493998070382513E7 ; 1.2122229497516215E9 ; 3.988146015673099E9 ; 1.0033193033879929E11 ; 0.0
92 ; 4.493028320045139E7 ; 1.212299880873317E9 ; 4.033085996376924E9 ; 1.015441532885509E11 ; 0.0
93 ; 4.492058550205832E7 ; 1.2123770201625118E9 ; 4.0780162795773754E9 ; 1.0275645316942422E11 ; 0.0
94 ; 4.490424185945537E7 ; 1.2124543572871623E9 ; 4.122936865079434E9 ; 1.0396883018958673E11 ; 0.0
95 ; 4.4890840795628786E7 ; 1.2125318821445343E9 ; 4.1678411069388895E9 ; 1.0518128454687389E11 ; 0.0
96 ; 4.4883937799236454E7 ; 1.2126095848552437E9 ; 4.212731947734518E9 ; 1.0639381642901842E11 ; 0.0
97 ; 4.487320429329406E7 ; 1.2126874557574058E9 ; 4.2576158855337543E9 ; 1.0760642601387366E11 ; 0.0
98 ; 4.4853785248040706E7 ; 1.2127654854008965E9 ; 4.302489089827048E9 ; 1.0881911346963106E11 ; 0.0
99 ; 4.4835475855101846E7 ; 1.2128436645417314E9 ; 4.347342875075089E9 ; 1.1003187895503195E11 ; 0.0
100 ; 4.481877507816377E7 ; 1.2129219841365592E9 ; 4.392178350930191E9 ; 1.1124472261957368E11 ; 0.0
101 ; 4.480810497235891E7 ; 1.213000435337278E9 ; 4.436997126008355E9 ; 1.1245764460371025E11 ; 0.0
102 ; 4.479739512178005E7 ; 1.213079009485769E9 ; 4.481805230980714E9 ; 1.1367064503904753E11 ; 0.0
103 ; 4.47850562349314E7 ; 1.2131576981087554E9 ; 4.526602626102494E9 ; 1.148837240485333E11 ; 0.0
104 ; 4.4764369082858324E7 ; 1.213236492912778E9 ; 4.571387682337425E9 ; 1.1609688174664204E11 ; 0.0
105 ; 4.474176877617427E7 ; 1.2133153857792974E9 ; 4.616152051420283E9 ; 1.1731011823955482E11 ; 0.0
106 ; 4.472236194224705E7 ; 1.2133943687599144E9 ; 4.660893820196458E9 ; 1.1852343362533412E11 ; 0.0
107 ; 4.4707456771559104E7 ; 1.2134734340717106E9 ; 4.705616182138705E9 ; 1.1973682799409404E11 ; 0.0
108 ; 4.4696855485316224E7 ; 1.2135525740927124E9 ; 4.750323638910264E9 ; 1.2095030142816576E11 ; 0.0
109 ; 4.4672367829589635E7 ; 1.2136317813574677E9 ; 4.79502049439558E9 ; 1.2216385400225847E11 ; 0.0
110 ; 4.465507681686143E7 ; 1.213711048552744E9 ; 4.83969286222517E9 ; 1.2337748578361594E11 ; 0.0
111 ; 4.463269887248549E7 ; 1.213790368513342E9 ; 4.884347939042031E9 ; 1.2459119683216869E11 ; 0.0
112 ; 4.461481346246785E7 ; 1.2138697342180195E9 ; 4.928980637914516E9 ; 1.2580498720068202E11 ; 0.0
113 ; 4.459609269067505E7 ; 1.2139491387855308E9 ; 4.973595451376985E9 ; 1.2701885693490004E11 ; 0.0
114 ; 4.45766656901561E7 ; 1.2140285754707747E9 ; 5.018191544067659E9 ; 1.2823280607368558E11 ; 0.0
115 ; 4.4558137673612684E7 ; 1.2141080376610513E9 ; 5.062768209757815E9 ; 1.2944683464915636E11 ; 0.0
116 ; 4.4528871116847225E7 ; 1.2141875188724227E9 ; 5.107326347431428E9 ; 1.3066094268681741E11 ; 0.0
117 ; 4.4511233642068855E7 ; 1.214267012746181E9 ; 5.151855218548275E9 ; 1.3187513020568983E11 ; 0.0
118 ; 4.4483824321162954E7 ; 1.2143465130454147E9 ; 5.196366452190344E9 ; 1.3308939721843602E11 ; 0.0
119 ; 4.446808570616059E7 ; 1.2144260136516767E9 ; 5.240850276511507E9 ; 1.3430374373148143E11 ; 0.0
120 ; 4.444920625097205E7 ; 1.214505508561747E9 ; 5.285318362217668E9 ; 1.355181697451331E11 ; 0.0
121 ; 4.4418355602463305E7 ; 1.2145849918844934E9 ; 5.329767568468639E9 ; 1.3673267525369485E11 ; 0.0
122 ; 4.440232357481991E7 ; 1.2146644578378205E9 ; 5.374185924071103E9 ; 1.3794726024557935E11 ; 0.0
123 ; 4.437053801955078E7 ; 1.2147439007457142E9 ; 5.418588247645923E9 ; 1.3916192470341718E11 ; 0.0
124 ; 4.4351753009363115E7 ; 1.2148233150353694E9 ; 5.462958785665473E9 ; 1.403766686041629E11 ; 0.0
125 ; 4.432271556351758E7 ; 1.2149026952344055E9 ; 5.507310538674836E9 ; 1.4159149191919827E11 ; 0.0
126 ; 4.430068204943664E7 ; 1.2149820359681659E9 ; 5.551633254238354E9 ; 1.4280639461443268E11 ; 0.0
127 ; 4.427730176780412E7 ; 1.2150613319570966E9 ; 5.59593393628779E9 ; 1.4402137665040085E11 ; 0.0
128 ; 4.42503386762389E7 ; 1.2151405780142057E9 ; 5.640211238055594E9 ; 1.4523643798235794E11 ; 0.0
129 ; 4.422785305404504E7 ; 1.2152197690425994E9 ; 5.684461576731833E9 ; 1.4645157856037213E11 ; 0.0
130 ; 4.419915117437175E7 ; 1.2152989000330918E9 ; 5.728689429785878E9 ; 1.4766679832941473E11 ; 0.0
131 ; 4.415542860894458E7 ; 1.2153779660618868E9 ; 5.77288858096025E9 ; 1.488820972294478E11 ; 0.0
132 ; 4.411036559773413E7 ; 1.2154569622883327E9 ; 5.817044009569195E9 ; 1.500974751955097E11 ; 0.0
133 ; 4.4072276290008105E7 ; 1.2155358839527438E9 ; 5.861154375166929E9 ; 1.5131293215779803E11 ; 0.0
134 ; 4.402765709961003E7 ; 1.2156147263742876E9 ; 5.905226651456938E9 ; 1.525284680417508E11 ; 0.0
135 ; 4.3996016028067105E7 ; 1.215693484948938E9 ; 5.949254308556548E9 ; 1.537440827681251E11 ; 0.0
136 ; 4.394545566511314E7 ; 1.21577215514749E9 ; 5.993250324584615E9 ; 1.5495977625307404E11 ; 0.0
137 ; 4.3906279964049056E7 ; 1.215850732513637E9 ; 6.037195780249728E9 ; 1.5617554840822153E11 ; 0.0
138 ; 4.386729694531276E7 ; 1.2159292126621041E9 ; 6.081102060213778E9 ; 1.5739139914073517E11 ; 0.0
139 ; 4.381945201688634E7 ; 1.2160075912768402E9 ; 6.12496935715909E9 ; 1.5860732835339728E11 ; 0.0
140 ; 4.3782906320231E7 ; 1.2160858641092668E9 ; 6.168788809175977E9 ; 1.5982333594467413E11 ; 0.0
141 ; 4.373968247923165E7 ; 1.2161640269765763E9 ; 6.212571715496208E9 ; 1.610394218087834E11 ; 0.0
142 ; 4.369200428165663E7 ; 1.216242075760089E9 ; 6.25631139797544E9 ; 1.6225558583575995E11 ; 0.0
143 ; 4.36494274324045E7 ; 1.2163200064036522E9 ; 6.300003402257096E9 ; 1.6347182791152005E11 ; 0.0
144 ; 4.360286363644784E7 ; 1.216397814912096E9 ; 6.343652829689501E9 ; 1.646881479179237E11 ; 0.0
145 ; 4.358503812700285E7 ; 1.2164754973497326E9 ; 6.387255693325949E9 ; 1.6590454573283582E11 ; 0.0
146 ; 4.355227707265782E7 ; 1.2165530498389E9 ; 6.430840731452951E9 ; 1.6712102123018555E11 ; 0.0
147 ; 4.3521346937411495E7 ; 1.2166304685585551E9 ; 6.474393008525609E9 ; 1.6833757428002444E11 ; 0.0
148 ; 4.349290140049423E7 ; 1.216707749742905E9 ; 6.51791435546302E9 ; 1.69554204748583E11 ; 0.0
149 ; 4.346393624505065E7 ; 1.2167848896800826E9 ; 6.561407256863515E9 ; 1.7077091249832593E11 ; 0.0
150 ; 4.343286806948614E7 ; 1.216861884710863E9 ; 6.604871193108565E9 ; 1.71987697388006E11 ; 0.0
151 ; 4.3410844460711606E7 ; 1.2169387312274177E9 ; 6.648304061178051E9 ; 1.732045592727169E11 ; 0.0
152 ; 4.337911949131037E7 ; 1.2170154256721063E9 ; 6.691714905638762E9 ; 1.744214980039443E11 ; 0.0
153 ; 4.334705082427174E7 ; 1.2170919645363073E9 ; 6.735094025130073E9 ; 1.7563851342961642E11 ; 0.0
154 ; 4.33167104767578E7 ; 1.2171683443592832E9 ; 6.778441075954345E9 ; 1.7685560539415274E11 ; 0.0
155 ; 4.328886668260153E7 ; 1.2172445617270777E9 ; 6.821757786431103E9 ; 1.7807277373851202E11 ; 0.0
156 ; 4.326228747190589E7 ; 1.217320613271452E9 ; 6.865046653113705E9 ; 1.792900183002391E11 ; 0.0
157 ; 4.322721169054957E7 ; 1.217396495668847E9 ; 6.90830894058561E9 ; 1.8050733891351056E11 ; 0.0
158 ; 4.320147159817824E7 ; 1.2174722056393814E9 ; 6.95153615227616E9 ; 1.817247354091794E11 ; 0.0
159 ; 4.316566937300336E7 ; 1.2175477399458778E9 ; 6.994737623874338E9 ; 1.829422076148188E11 ; 0.0
160 ; 4.314884387059794E7 ; 1.2176230953929198E9 ; 7.037903293247341E9 ; 1.8415975535476468E11 ; 0.0
161 ; 4.3113535153858155E7 ; 1.2176982688259351E9 ; 7.081052137117939E9 ; 1.853773784501576E11 ; 0.0
162 ; 4.308123020685521E7 ; 1.2177732571303089E9 ; 7.124165672271797E9 ; 1.8659507671898352E11 ; 0.0
163 ; 4.3052460760309696E7 ; 1.217848057230522E9 ; 7.167246902478652E9 ; 1.8781284997611383E11 ; 0.0
164 ; 4.302722674007744E7 ; 1.2179226660893154E9 ; 7.210299363238962E9 ; 1.8903069803334436E11 ; 0.0
165 ; 4.298848601148979E7 ; 1.2179970807068815E9 ; 7.253326589979039E9 ; 1.902486206994337E11 ; 0.0
166 ; 4.29654181589233E7 ; 1.2180712981200743E9 ; 7.296315075990529E9 ; 1.9146661778014056E11 ; 0.0
167 ; 4.293148958008382E7 ; 1.218145315401651E9 ; 7.339280494149452E9 ; 1.9268468907826065E11 ; 0.0
168 ; 4.29022881810887E7 ; 1.218219129659529E9 ; 7.382211983729536E9 ; 1.939028343936623E11 ; 0.0
169 ; 4.287251310904066E7 ; 1.2182927380360692E9 ; 7.4251142719106245E9 ; 1.951210535233218E11 ; 0.0
170 ; 4.283325650850034E7 ; 1.2183661377073786E9 ; 7.467986785019665E9 ; 1.9633934626135788E11 ; 0.0
171 ; 4.2806757807109155E7 ; 1.2184393258826356E9 ; 7.510820041528165E9 ; 1.9755771239906525E11 ; 0.0
172 ; 4.277324368212569E7 ; 1.218512299803432E9 ; 7.553626799335274E9 ; 1.9877615172494788E11 ; 0.0
173 ; 4.274878764967928E7 ; 1.2185850567431383E9 ; 7.5964000430174E9 ; 1.999946640247513E11 ; 0.0
174 ; 4.2723222169014916E7 ; 1.2186575940062847E9 ; 7.639148830667079E9 ; 2.0121324908149445E11 ; 0.0
175 ; 4.2709092729154386E7 ; 1.2187299089279613E9 ; 7.681872052836094E9 ; 2.0243190667550073E11 ; 0.0
176 ; 4.269360870148789E7 ; 1.218801998873237E9 ; 7.7245811455652485E9 ; 2.0365063658442868E11 ; 0.0
177 ; 4.266848316330085E7 ; 1.2188738612365925E9 ; 7.767274754266736E9 ; 2.048694385833019E11 ; 0.0
178 ; 4.264973221855857E7 ; 1.2189454934413745E9 ; 7.809943237430037E9 ; 2.060883124445385E11 ; 0.0
179 ; 4.263160788390474E7 ; 1.2190168929392617E9 ; 7.852592969648595E9 ; 2.073072579379799E11 ; 0.0
180 ; 4.2606417094726905E7 ; 1.219088057209747E9 ; 7.895224577532499E9 ; 2.0852627483091916E11 ; 0.0
181 ; 4.258817844708461E7 ; 1.2191589837596376E9 ; 7.937830994627226E9 ; 2.097453628881289E11 ; 0.0
182 ; 4.256206314021217E7 ; 1.2192296701225662E9 ; 7.98041917307431E9 ; 2.1096452187188855E11 ; 0.0
183 ; 4.2552056416173495E7 ; 1.2193001138585181E9 ; 8.022981236214522E9 ; 2.121837515420111E11 ; 0.0
184 ; 4.25341998872262E7 ; 1.2193703125533726E9 ; 8.065533292630696E9 ; 2.1340305165586963E11 ; 0.0
185 ; 4.251496072384342E7 ; 1.2194E9 ; 8.108067492517922E9 ; 2.14622421968423E11 ; 0.0
186 ; 4.2493960141735926E7 ; 1.2194E9 ; 8.150582453241766E9 ; 2.15841821968423E11 ; 0.0
187 ; 4.24692791112202E7 ; 1.2194E9 ; 8.193076413383502E9 ; 2.17061221968423E11 ; 0.0
188 ; 4.246017239848758E7 ; 1.2194E9 ; 8.235545692494722E9 ; 2.18280621968423E11 ; 0.0
189 ; 4.244369358764386E7 ; 1.2194E9 ; 8.27800586489321E9 ; 2.19500021968423E11 ; 0.0
190 ; 4.241708797716393E7 ; 1.2194E9 ; 8.320449558480854E9 ; 2.20719421968423E11 ; 0.0
191 ; 4.240260391509202E7 ; 1.2194E9 ; 8.362866646458018E9 ; 2.21938821968423E11 ; 0.0
192 ; 4.2378582836819515E7 ; 1.2194E9 ; 8.405269250373111E9 ; 2.23158221968423E11 ; 0.0
193 ; 4.2362887450443015E7 ; 1.2194E9 ; 8.44764783320993E9 ; 2.24377621968423E11 ; 0.0
194 ; 4.234388801128219E7 ; 1.2194E9 ; 8.490010720660374E9 ; 2.25597021968423E11 ; 0.0
195 ; 4.2314075447206154E7 ; 1.2194E9 ; 8.532354608671656E9 ; 2.26816421968423E11 ; 0.0
196 ; 4.230148279745892E7 ; 1.2194E9 ; 8.574668684118862E9 ; 2.28035821968423E11 ; 0.0
197 ; 4.223978577627079E7 ; 1.2194E9 ; 8.61697016691632E9 ; 2.29255221968423E11 ; 0.0
198 ; 4.2165509534152344E7 ; 1.2086421712176127E9 ; 8.65920995269259E9 ; 2.30474621968423E11 ; 0.0
