CSV File for the Network on Day 52
1 - Minute m 
2 - Power Consumed at minute m 
3 - Power Produced at minute m 
4 - Energy Consumed since the beginning of the day 
5 - Energy Produced since the beginning of the day 
6 - Energy Lost since the beginning of the day 
 
0 ; 3.841071715654714E7 ; 6.336377670925447E8 ; 0.0 ; 0.0 ; 0.0
1 ; 3.844656488192784E7 ; 6.345462813442613E8 ; 3.841071715654714E7 ; 6.336377670925447E8 ; 0.0
2 ; 3.8492997266298085E7 ; 6.37308379198951E8 ; 7.685728203847498E7 ; 1.268184048436806E9 ; 0.0
3 ; 3.85441559967325E7 ; 6.41924092920744E8 ; 1.1535027930477306E8 ; 1.905492427635757E9 ; 0.0
4 ; 3.8592670788292155E7 ; 6.483934517869126E8 ; 1.5389443530150557E8 ; 2.547416520556501E9 ; 0.0
5 ; 3.866249618073096E7 ; 6.567164818077712E8 ; 1.9248710608979774E8 ; 3.1958099723434134E9 ; 0.0
6 ; 3.876015745862182E7 ; 6.668932054690951E8 ; 2.311496022705287E8 ; 3.8525264541511846E9 ; 0.0
7 ; 3.8889666913936414E7 ; 6.789236415027621E8 ; 2.6990975972915053E8 ; 4.519419659620279E9 ; 0.0
8 ; 3.906878059795609E7 ; 6.928078046909168E8 ; 3.0879942664308697E8 ; 5.198343301123041E9 ; 0.0
9 ; 3.9347324913339615E7 ; 7.085457057083535E8 ; 3.478682072410431E8 ; 5.891151105813958E9 ; 0.0
10 ; 3.9785742142073214E7 ; 7.261373510069969E8 ; 3.872155321543827E8 ; 6.599696811522312E9 ; 0.0
11 ; 4.047843068586299E7 ; 7.455827427453907E8 ; 4.270012742964559E8 ; 7.325834162529309E9 ; 0.0
12 ; 4.1578675439113006E7 ; 7.66881878764991E8 ; 4.674797049823189E8 ; 8.0714169052747E9 ; 0.0
13 ; 4.263619794480554E7 ; 7.900347526138732E8 ; 5.090583804214319E8 ; 8.838298784039692E9 ; 0.0
14 ; 4.276815617830669E7 ; 8.150413536172433E8 ; 5.516945783662374E8 ; 9.628333536653564E9 ; 0.0
15 ; 4.281232609974635E7 ; 8.419016669929564E8 ; 5.944627345445441E8 ; 1.0443374890270807E10 ; 0.0
16 ; 4.286343503212503E7 ; 8.706156740091349E8 ; 6.372750606442904E8 ; 1.1285276557263763E10 ; 0.0
17 ; 4.291492807072815E7 ; 9.011833521800032E8 ; 6.801384956764154E8 ; 1.2155892231272898E10 ; 0.0
18 ; 4.296565369603593E7 ; 9.336046754952474E8 ; 7.230534237471436E8 ; 1.30570755834529E10 ; 0.0
19 ; 4.300943118795847E7 ; 9.678796146775945E8 ; 7.660190774431796E8 ; 1.3990680258948147E10 ; 0.0
20 ; 4.306721038023525E7 ; 1.0040081374629148E9 ; 8.090285086311381E8 ; 1.4958559873625742E10 ; 0.0
21 ; 4.312073450870609E7 ; 1.041990208896955E9 ; 8.520957190113733E8 ; 1.5962568011088657E10 ; 0.0
22 ; 4.3166565577965304E7 ; 1.081825791642841E9 ; 8.952164535200794E8 ; 1.7004558219985613E10 ; 0.0
23 ; 4.3218032071308106E7 ; 1.1235148462936928E9 ; 9.383830190980446E8 ; 1.8086384011628452E10 ; 0.0
24 ; 4.326354922709352E7 ; 1.1670573316850536E9 ; 9.816010511693528E8 ; 1.9209898857922146E10 ; 0.0
25 ; 4.331921276553292E7 ; 1.2045814505914385E9 ; 1.0248646003964462E9 ; 2.03769561896072E10 ; 0.0
26 ; 4.3359036841549635E7 ; 1.2046084462459545E9 ; 1.0681838131619792E9 ; 2.158153764019864E10 ; 0.0
27 ; 4.341305659954813E7 ; 1.204636889775184E9 ; 1.1115428500035288E9 ; 2.2786146086444595E10 ; 0.0
28 ; 4.345428961021876E7 ; 1.2046667359495986E9 ; 1.154955906603077E9 ; 2.399078297621978E10 ; 0.0
29 ; 4.350481319887483E7 ; 1.2046979391948707E9 ; 1.1984101962132957E9 ; 2.519544971216938E10 ; 0.0
30 ; 4.3551347617991336E7 ; 1.2047304538241687E9 ; 1.2419150094121704E9 ; 2.640014765136425E10 ; 0.0
31 ; 4.3595240492737375E7 ; 1.2047642342498872E9 ; 1.2854663570301619E9 ; 2.760487810518842E10 ; 0.0
32 ; 4.364418634593702E7 ; 1.2047992351743202E9 ; 1.3290615975228992E9 ; 2.8809642339438305E10 ; 0.0
33 ; 4.368826146068654E7 ; 1.2048354117592585E9 ; 1.3727057838688362E9 ; 3.0014441574612625E10 ; 0.0
34 ; 4.372892554102943E7 ; 1.204872719774878E9 ; 1.4163940453295226E9 ; 3.1219276986371883E10 ; 0.0
35 ; 4.376872823342679E7 ; 1.2049111157286105E9 ; 1.460122970870552E9 ; 3.2424149706146763E10 ; 0.0
36 ; 4.379932333517038E7 ; 1.2049505569749415E9 ; 1.5038916991039789E9 ; 3.3629060821875374E10 ; 0.0
37 ; 4.384460996343162E7 ; 1.2049910018072662E9 ; 1.5476910224391491E9 ; 3.483401137885032E10 ; 0.0
38 ; 4.388162253671207E7 ; 1.20503240953307E9 ; 1.5915356324025807E9 ; 3.6039002380657585E10 ; 0.0
39 ; 4.391400801455809E7 ; 1.2050747405337758E9 ; 1.635417254939293E9 ; 3.724403479019066E10 ; 0.0
40 ; 4.394886780223595E7 ; 1.2051179563106358E9 ; 1.679331262953851E9 ; 3.8449109530724434E10 ; 0.0
41 ; 4.3976887647378564E7 ; 1.2051620195180573E9 ; 1.7232801307560868E9 ; 3.965422748703507E10 ; 0.0
42 ; 4.40062414198203E7 ; 1.2052068939857097E9 ; 1.7672570184034653E9 ; 4.085938950655313E10 ; 0.0
43 ; 4.403565985782259E7 ; 1.2052525447307234E9 ; 1.8112632598232856E9 ; 4.206459640053884E10 ; 0.0
44 ; 4.4064779627962865E7 ; 1.2052989379612148E9 ; 1.8552989196811082E9 ; 4.326984894526956E10 ; 0.0
45 ; 4.408222478605694E7 ; 1.2053460410723033E9 ; 1.899363699309071E9 ; 4.4475147883230774E10 ; 0.0
46 ; 4.411301684444187E7 ; 1.2053938226356916E9 ; 1.943445924095128E9 ; 4.568049392430308E10 ; 0.0
47 ; 4.412852829144058E7 ; 1.2054422523837984E9 ; 1.98755894093957E9 ; 4.688588774693877E10 ; 0.0
48 ; 4.414578983142745E7 ; 1.2054913011893408E9 ; 2.0316874692310104E9 ; 4.809132999932256E10 ; 0.0
49 ; 4.415856540543322E7 ; 1.2055409410411735E9 ; 2.0758332590624378E9 ; 4.92968213005119E10 ; 0.0
50 ; 4.417007132240757E7 ; 1.2055911450171087E9 ; 2.119991824467871E9 ; 5.050236224155308E10 ; 0.0
51 ; 4.418484387832352E7 ; 1.2056418872543569E9 ; 2.1641618957902784E9 ; 5.170795338657018E10 ; 0.0
52 ; 4.419251996495904E7 ; 1.2056931429181526E9 ; 2.208346739668602E9 ; 5.291359527382454E10 ; 0.0
53 ; 4.421765894273965E7 ; 1.2057448881690593E9 ; 2.252539259633561E9 ; 5.411928841674269E10 ; 0.0
54 ; 4.422601995491721E7 ; 1.2057971001293821E9 ; 2.2967569185763006E9 ; 5.532503330491175E10 ; 0.0
55 ; 4.423611500181733E7 ; 1.2058497568490524E9 ; 2.340982938531218E9 ; 5.653083040504113E10 ; 0.0
56 ; 4.42404988277758E7 ; 1.2059028372713041E9 ; 2.3852190535330353E9 ; 5.773668016189018E10 ; 0.0
57 ; 4.4253028575687334E7 ; 1.2059563211984048E9 ; 2.429459552360811E9 ; 5.894258299916148E10 ; 0.0
58 ; 4.4259699630272195E7 ; 1.2060101892576637E9 ; 2.4737125809364986E9 ; 6.0148539320359886E10 ; 0.0
59 ; 4.4266370256632514E7 ; 1.2060644228679042E9 ; 2.517972280566771E9 ; 6.135454950961755E10 ; 0.0
60 ; 4.427623677485109E7 ; 1.2061190042065492E9 ; 2.5622386508234034E9 ; 6.256061393248546E10 ; 0.0
61 ; 4.42838634844717E7 ; 1.2061739161774433E9 ; 2.6065148875982547E9 ; 6.376673293669201E10 ; 0.0
62 ; 4.4298370883656636E7 ; 1.206229142379506E9 ; 2.6507987510827265E9 ; 6.497290685286945E10 ; 0.0
63 ; 4.430175993382288E7 ; 1.2062846670762916E9 ; 2.695097121966383E9 ; 6.617913599524896E10 ; 0.0
64 ; 4.430479669698592E7 ; 1.2063404751665072E9 ; 2.739398881900206E9 ; 6.738542066232526E10 ; 0.0
65 ; 4.431182392496631E7 ; 1.2063965521555352E9 ; 2.783703678597192E9 ; 6.859176113749176E10 ; 0.0
66 ; 4.43159160833776E7 ; 1.2064528841279726E9 ; 2.828015502522158E9 ; 6.97981576896473E10 ; 0.0
67 ; 4.432627708455959E7 ; 1.2065094577212124E9 ; 2.8723314186055355E9 ; 7.100461057377527E10 ; 0.0
68 ; 4.433110833258077E7 ; 1.2065662601000607E9 ; 2.916657695690095E9 ; 7.221112003149648E10 ; 0.0
69 ; 4.43350846125756E7 ; 1.206623278932393E9 ; 2.9609888040226755E9 ; 7.341768629159654E10 ; 0.0
70 ; 4.434045037592535E7 ; 1.2066805023658273E9 ; 3.005323888635251E9 ; 7.462430957052893E10 ; 0.0
71 ; 4.434449467032015E7 ; 1.2067379190054083E9 ; 3.0496643390111766E9 ; 7.583099007289476E10 ; 0.0
72 ; 4.434492431933606E7 ; 1.206795517892271E9 ; 3.0940088336814966E9 ; 7.703772799190016E10 ; 0.0
73 ; 4.435158681276875E7 ; 1.206853288483267E9 ; 3.1383537580008326E9 ; 7.824452350979243E10 ; 0.0
74 ; 4.435453048152174E7 ; 1.206911220631519E9 ; 3.1827053448136015E9 ; 7.94513767982757E10 ; 0.0
75 ; 4.435378235886356E7 ; 1.2069693045678787E9 ; 3.227059875295123E9 ; 8.065828801890721E10 ; 0.0
76 ; 4.435263978532464E7 ; 1.2070275308832545E9 ; 3.2714136576539865E9 ; 8.18652573234751E10 ; 0.0
77 ; 4.435490847495874E7 ; 1.2070858905117779E9 ; 3.315766297439311E9 ; 8.307228485435835E10 ; 0.0
78 ; 4.4350838901513994E7 ; 1.2071443747147765E9 ; 3.36012120591427E9 ; 8.427937074487013E10 ; 0.0
79 ; 4.433133329799101E7 ; 1.2072029750655205E9 ; 3.404472044815784E9 ; 8.548651511958492E10 ; 0.0
80 ; 4.431865280390598E7 ; 1.207261683434711E9 ; 3.448803378113775E9 ; 8.669371809465044E10 ; 0.0
81 ; 4.430875527439628E7 ; 1.2073204919766762E9 ; 3.4931220309176807E9 ; 8.790097977808514E10 ; 0.0
82 ; 4.42931254130509E7 ; 1.2073793931162481E9 ; 3.537430786192077E9 ; 8.910830027006181E10 ; 0.0
83 ; 4.427500705037759E7 ; 1.207438379536284E9 ; 3.5817239116051283E9 ; 9.031567966317805E10 ; 0.0
84 ; 4.426070545894171E7 ; 1.2074974441658037E9 ; 3.6259989186555057E9 ; 9.152311804271434E10 ; 0.0
85 ; 4.424820977836589E7 ; 1.20755658016872E9 ; 3.6702596241144476E9 ; 9.273061548688014E10 ; 0.0
86 ; 4.423042689621782E7 ; 1.2076157809331226E9 ; 3.7145078338928137E9 ; 9.393817206704886E10 ; 0.0
87 ; 4.42185324860353E7 ; 1.2076750400610988E9 ; 3.7587382607890315E9 ; 9.514578784798198E10 ; 0.0
88 ; 4.41940869515901E7 ; 1.2077343513590574E9 ; 3.802956793275067E9 ; 9.635346288804308E10 ; 0.0
89 ; 4.4187290202256E7 ; 1.2077937088285375E9 ; 3.847150880226657E9 ; 9.756119723940213E10 ; 0.0
90 ; 4.416966222093894E7 ; 1.2078531066574702E9 ; 3.891338170428913E9 ; 9.876899094823067E10 ; 0.0
91 ; 4.414585052517563E7 ; 1.2079125392118793E9 ; 3.9355078326498523E9 ; 9.997684405488814E10 ; 0.0
92 ; 4.41265103616126E7 ; 1.2079720010279884E9 ; 3.979653683175028E9 ; 1.0118475659410002E11 ; 0.0
93 ; 4.4109817630717956E7 ; 1.2080314868047247E9 ; 4.0237801935366406E9 ; 1.02392728595128E11 ; 0.0
94 ; 4.4099947451928355E7 ; 1.2080909913965902E9 ; 4.0678900111673584E9 ; 1.0360076008193272E11 ; 0.0
95 ; 4.407697362469869E7 ; 1.2081505098068862E9 ; 4.1119899586192865E9 ; 1.0480885107332932E11 ; 0.0
96 ; 4.405280725605924E7 ; 1.2082100371812718E9 ; 4.156066932243985E9 ; 1.060170015831362E11 ; 0.0
97 ; 4.403128025513235E7 ; 1.2082695688016384E9 ; 4.2001197395000443E9 ; 1.0722521162031747E11 ; 0.0
98 ; 4.40171444038433E7 ; 1.2083291000802858E9 ; 4.2441510197551765E9 ; 1.0843348118911911E11 ; 0.0
99 ; 4.399358519887392E7 ; 1.2083886265543818E9 ; 4.28816816415902E9 ; 1.096418102891994E11 ; 0.0
100 ; 4.396419018288252E7 ; 1.2084481438806913E9 ; 4.332161749357894E9 ; 1.1085019891575378E11 ; 0.0
101 ; 4.394716561158909E7 ; 1.208507647830564E9 ; 4.376125939540776E9 ; 1.1205864705963448E11 ; 0.0
102 ; 4.393476555235087E7 ; 1.2085671342851613E9 ; 4.420073105152366E9 ; 1.1326715470746504E11 ; 0.0
103 ; 4.391062474451906E7 ; 1.208626599230917E9 ; 4.464007870704717E9 ; 1.144757218417502E11 ; 0.0
104 ; 4.387658089189322E7 ; 1.2086860387552118E9 ; 4.507918495449236E9 ; 1.1568434844098111E11 ; 0.0
105 ; 4.385501280437414E7 ; 1.2087454490422611E9 ; 4.551795076341129E9 ; 1.1689303447973633E11 ; 0.0
106 ; 4.383499584988703E7 ; 1.2088048263691921E9 ; 4.595650089145503E9 ; 1.181017799287786E11 ; 0.0
107 ; 4.380724729969665E7 ; 1.2088641671023118E9 ; 4.63948508499539E9 ; 1.1931058475514778E11 ; 0.0
108 ; 4.3779583010737404E7 ; 1.2089234676935508E9 ; 4.683292332295087E9 ; 1.2051944892225009E11 ; 0.0
109 ; 4.3757366613140196E7 ; 1.2089827246770725E9 ; 4.727071915305824E9 ; 1.2172837238994365E11 ; 0.0
110 ; 4.3729658257162385E7 ; 1.2090419346660454E9 ; 4.770829281918964E9 ; 1.2293735511462073E11 ; 0.0
111 ; 4.370866581300579E7 ; 1.2091010943495603E9 ; 4.8145589401761265E9 ; 1.2414639704928677E11 ; 0.0
112 ; 4.3685137197454534E7 ; 1.2091602004896977E9 ; 4.858267605989132E9 ; 1.2535549814363634E11 ; 0.0
113 ; 4.365195339432806E7 ; 1.2092192499187255E9 ; 4.901952743186586E9 ; 1.2656465834412604E11 ; 0.0
114 ; 4.362378650351493E7 ; 1.209278239536429E9 ; 4.9456046965809145E9 ; 1.2777387759404477E11 ; 0.0
115 ; 4.360267087521455E7 ; 1.2093371663075614E9 ; 4.98922848308443E9 ; 1.2898315583358119E11 ; 0.0
116 ; 4.357468336813065E7 ; 1.2093960272594118E9 ; 5.032831153959644E9 ; 1.3019249299988875E11 ; 0.0
117 ; 4.354432491421309E7 ; 1.209454819479485E9 ; 5.076405837327775E9 ; 1.3140188902714816E11 ; 0.0
118 ; 4.351121602191747E7 ; 1.2095135401132836E9 ; 5.119950162241988E9 ; 1.3261134384662766E11 ; 0.0
119 ; 4.347869108122874E7 ; 1.2095721863621917E9 ; 5.163461378263906E9 ; 1.3382085738674094E11 ; 0.0
120 ; 4.3451611851154394E7 ; 1.2096307554814525E9 ; 5.206940069345135E9 ; 1.3503042957310313E11 ; 0.0
121 ; 4.341577040360716E7 ; 1.2096892447782383E9 ; 5.250391681196289E9 ; 1.3624006032858458E11 ; 0.0
122 ; 4.338424064317432E7 ; 1.2097476516098042E9 ; 5.293807451599896E9 ; 1.3744974957336282E11 ; 0.0
123 ; 4.335943116558209E7 ; 1.209805973381722E9 ; 5.337191692243071E9 ; 1.3865949722497263E11 ; 0.0
124 ; 4.332040388945698E7 ; 1.2098642075461962E9 ; 5.380551123408652E9 ; 1.3986930319835434E11 ; 0.0
125 ; 4.3294465687770166E7 ; 1.2099223516004505E9 ; 5.423871527298109E9 ; 1.4107916740590054E11 ; 0.0
126 ; 4.326077712813204E7 ; 1.2099804030851846E9 ; 5.467165992985879E9 ; 1.42289089757501E11 ; 0.0
127 ; 4.322846217432797E7 ; 1.210038359583099E9 ; 5.510426770114011E9 ; 1.4349907016058618E11 ; 0.0
128 ; 4.32040822263062E7 ; 1.210096218717483E9 ; 5.553655232288339E9 ; 1.4470910852016928E11 ; 0.0
129 ; 4.315843094128466E7 ; 1.210153978150865E9 ; 5.596859314514645E9 ; 1.4591920473888675E11 ; 0.0
130 ; 4.312391775310864E7 ; 1.2102116355837164E9 ; 5.640017745455929E9 ; 1.4712935871703763E11 ; 0.0
131 ; 4.306665193409173E7 ; 1.2102691887532148E9 ; 5.683141663209038E9 ; 1.4833957035262134E11 ; 0.0
132 ; 4.302542459320101E7 ; 1.2103266354320588E9 ; 5.726208315143129E9 ; 1.4954983954137454E11 ; 0.0
133 ; 4.297429441461418E7 ; 1.2103839734273298E9 ; 5.76923373973633E9 ; 1.507601661768066E11 ; 0.0
134 ; 4.2926893097874835E7 ; 1.210441200579406E9 ; 5.812208034150944E9 ; 1.5197055015023395E11 ; 0.0
135 ; 4.288474046138121E7 ; 1.2104983147609181E9 ; 5.855134927248818E9 ; 1.5318099135081335E11 ; 0.0
136 ; 4.282603723049286E7 ; 1.2105553138757505E9 ; 5.898019667710199E9 ; 1.5439148966557428E11 ; 0.0
137 ; 4.2775262626945525E7 ; 1.210612195858083E9 ; 5.940845704940692E9 ; 1.5560204497945004E11 ; 0.0
138 ; 4.272767536345735E7 ; 1.2106689586714718E9 ; 5.983620967567637E9 ; 1.5681265717530814E11 ; 0.0
139 ; 4.2676537172908306E7 ; 1.2107256003079696E9 ; 6.026348642931095E9 ; 1.580233261339796E11 ; 0.0
140 ; 4.2626042308403954E7 ; 1.2107821187872791E9 ; 6.069025180104004E9 ; 1.592340517342876E11 ; 0.0
141 ; 4.257273897296873E7 ; 1.2108385121559439E9 ; 6.111651222412408E9 ; 1.604448338530749E11 ; 0.0
142 ; 4.2520134784814894E7 ; 1.2108947784865692E9 ; 6.154223961385377E9 ; 1.6165567236523083E11 ; 0.0
143 ; 4.246342444205576E7 ; 1.2109509158770761E9 ; 6.196744096170192E9 ; 1.628665671437174E11 ; 0.0
144 ; 4.241329579975073E7 ; 1.2110069224499846E9 ; 6.239207520612247E9 ; 1.6407751805959448E11 ; 0.0
145 ; 4.237389634203836E7 ; 1.2110627963517263E9 ; 6.281620816411998E9 ; 1.6528852498204446E11 ; 0.0
146 ; 4.2345209001630634E7 ; 1.211118535751983E9 ; 6.323994712754036E9 ; 1.6649958777839618E11 ; 0.0
147 ; 4.2299094925223574E7 ; 1.2111741388430517E9 ; 6.366339921755667E9 ; 1.6771070631414816E11 ; 0.0
148 ; 4.226150928720506E7 ; 1.211229603839237E9 ; 6.40863901668089E9 ; 1.689218804529912E11 ; 0.0
149 ; 4.223049021722303E7 ; 1.2112849289762635E9 ; 6.450900525968095E9 ; 1.7013311005683044E11 ; 0.0
150 ; 4.21933709798597E7 ; 1.2113401125107145E9 ; 6.493131016185318E9 ; 1.713443949858067E11 ; 0.0
151 ; 4.2149636838464275E7 ; 1.211395152719491E9 ; 6.535324387165177E9 ; 1.725557350983174E11 ; 0.0
152 ; 4.211018590714492E7 ; 1.21145004789929E9 ; 6.577474024003642E9 ; 1.737671302510369E11 ; 0.0
153 ; 4.2076777876857765E7 ; 1.2115047963661084E9 ; 6.619584209910787E9 ; 1.749785802989362E11 ; 0.0
154 ; 4.204031120065354E7 ; 1.2115593964547596E9 ; 6.661660987787644E9 ; 1.761900850953023E11 ; 0.0
155 ; 4.1999590464685395E7 ; 1.2116138465184116E9 ; 6.703701298988297E9 ; 1.7740164449175708E11 ; 0.0
156 ; 4.1958198005131274E7 ; 1.2116681449281437E9 ; 6.745700889452983E9 ; 1.7861325833827548E11 ; 0.0
157 ; 4.192554470232555E7 ; 1.2117222900725186E9 ; 6.787659087458115E9 ; 1.798249264832036E11 ; 0.0
158 ; 4.188005416611554E7 ; 1.2117762803571699E9 ; 6.82958463216044E9 ; 1.8103664877327612E11 ; 0.0
159 ; 4.1842486445221156E7 ; 1.2118301142044077E9 ; 6.871464686326556E9 ; 1.822484250536333E11 ; 0.0
160 ; 4.180495171318072E7 ; 1.211883790052837E9 ; 6.913307172771777E9 ; 1.834602551678377E11 ; 0.0
161 ; 4.17637601523909E7 ; 1.21193730635699E9 ; 6.955112124484958E9 ; 1.8467213895789053E11 ; 0.0
162 ; 4.1727548144126385E7 ; 1.2119906615869753E9 ; 6.996875884637348E9 ; 1.8588407626424753E11 ; 0.0
163 ; 4.1690044887135394E7 ; 1.2120438542281356E9 ; 7.038603432781474E9 ; 1.870960669258345E11 ; 0.0
164 ; 4.164704915896839E7 ; 1.2120968827807214E9 ; 7.08029347766861E9 ; 1.8830811078006265E11 ; 0.0
165 ; 4.1605101099524304E7 ; 1.2121497457595768E9 ; 7.121940526827578E9 ; 1.8952020766284338E11 ; 0.0
166 ; 4.157162064270441E7 ; 1.2122024416938338E9 ; 7.163545627927102E9 ; 1.9073235740860297E11 ; 0.0
167 ; 4.1524679443030514E7 ; 1.2122549691266212E9 ; 7.205117248569806E9 ; 1.919445598502968E11 ; 0.0
168 ; 4.14825304196839E7 ; 1.2123073266147823E9 ; 7.246641928012836E9 ; 1.9315681481942343E11 ; 0.0
169 ; 4.144670618924272E7 ; 1.212359512728604E9 ; 7.28812445843252E9 ; 1.943691221460382E11 ; 0.0
170 ; 4.139731034702151E7 ; 1.2124115260515542E9 ; 7.329571164621762E9 ; 1.955814816587668E11 ; 0.0
171 ; 4.135723248176237E7 ; 1.21246336518003E9 ; 7.370968474968783E9 ; 1.9679389318481836E11 ; 0.0
172 ; 4.132022016602827E7 ; 1.2125150287231154E9 ; 7.412325707450545E9 ; 1.9800635654999838E11 ; 0.0
173 ; 4.127716541559929E7 ; 1.2125665153023458E9 ; 7.453645927616573E9 ; 1.992188715787215E11 ; 0.0
174 ; 4.125718433719824E7 ; 1.2126178235514824E9 ; 7.494923093032172E9 ; 2.0043143809402383E11 ; 0.0
175 ; 4.123186946786988E7 ; 1.2126689521162953E9 ; 7.53618027736937E9 ; 2.0164405591757532E11 ; 0.0
176 ; 4.12033746660948E7 ; 1.2127198996543527E9 ; 7.57741214683724E9 ; 2.0285672486969162E11 ; 0.0
177 ; 4.118122536010743E7 ; 1.2127706648348174E9 ; 7.618615521503335E9 ; 2.0406944476934598E11 ; 0.0
178 ; 4.115163710997647E7 ; 1.2128212463382542E9 ; 7.659796746863442E9 ; 2.052822154341808E11 ; 0.0
179 ; 4.112569965647644E7 ; 1.2128716428564386E9 ; 7.700948383973419E9 ; 2.0649503668051904E11 ; 0.0
180 ; 4.110331495945597E7 ; 1.2129218530921772E9 ; 7.742074083629895E9 ; 2.077079083233755E11 ; 0.0
181 ; 4.107129645324988E7 ; 1.21297187575913E9 ; 7.783177398589352E9 ; 2.0892083017646765E11 ; 0.0
182 ; 4.1049995122419804E7 ; 1.2130217095816445E9 ; 7.824248695042602E9 ; 2.1013380205222678E11 ; 0.0
183 ; 4.102101555400984E7 ; 1.2130713532945893E9 ; 7.865298690165021E9 ; 2.113468237618084E11 ; 0.0
184 ; 4.100162734096746E7 ; 1.213120805643198E9 ; 7.90631970571903E9 ; 2.12559895115103E11 ; 0.0
185 ; 4.09709946855042E7 ; 1.2131700653829184E9 ; 7.947321333059998E9 ; 2.137730159207462E11 ; 0.0
186 ; 4.094372182488428E7 ; 1.2132191312792633E9 ; 7.9882923277455015E9 ; 2.149861859861291E11 ; 0.0
187 ; 4.092285663305045E7 ; 1.2132680021076708E9 ; 8.029236049570386E9 ; 2.1619940511740836E11 ; 0.0
188 ; 4.089603792245578E7 ; 1.2133166766533668E9 ; 8.070158906203437E9 ; 2.1741267311951602E11 ; 0.0
189 ; 4.087781614447929E7 ; 1.213365153711234E9 ; 8.111054944125893E9 ; 2.186259897961694E11 ; 0.0
190 ; 4.084819610714205E7 ; 1.2134134320856833E9 ; 8.151932760270372E9 ; 2.1983935494988065E11 ; 0.0
191 ; 4.081903487046364E7 ; 1.2134615105905318E9 ; 8.192780956377515E9 ; 2.2105276838196634E11 ; 0.0
192 ; 4.0798030915315405E7 ; 1.213509388048884E9 ; 8.233599991247978E9 ; 2.222662298925569E11 ; 0.0
193 ; 4.077227873459721E7 ; 1.2135570632930171E9 ; 8.274398022163294E9 ; 2.2347973928060577E11 ; 0.0
194 ; 4.075176172238723E7 ; 1.2136045351642706E9 ; 8.315170300897891E9 ; 2.246932963438988E11 ; 0.0
195 ; 4.071861225755021E7 ; 1.2136518025129392E9 ; 8.355922062620278E9 ; 2.2590690087906308E11 ; 0.0
196 ; 4.069817688070044E7 ; 1.21369886419817E9 ; 8.396640674877829E9 ; 2.2712055268157602E11 ; 0.0
197 ; 4.067284284175912E7 ; 1.213745719087862E9 ; 8.437338851758529E9 ; 2.283342515457742E11 ; 0.0
