CSV File for the Network on Day 267
1 - Minute m 
2 - Power Consumed at minute m 
3 - Power Produced at minute m 
4 - Energy Consumed since the beginning of the day 
5 - Energy Produced since the beginning of the day 
6 - Energy Lost since the beginning of the day 
 
0 ; 1.5787854191687688E7 ; 6.352923277862822E8 ; 0.0 ; 0.0 ; 0.0
1 ; 1.5812122084662782E7 ; 6.362032352709692E8 ; 1.5787854191687688E7 ; 6.352923277862822E8 ; 0.0
2 ; 1.5841798510234162E7 ; 6.389675279032966E8 ; 3.159997627635047E7 ; 1.2714955630572515E9 ; 0.0
3 ; 1.5878849018043643E7 ; 6.435852211947606E8 ; 4.744177478658463E7 ; 1.910463090960548E9 ; 0.0
4 ; 1.5923883445477527E7 ; 6.500563290359178E8 ; 6.3320623804628275E7 ; 2.5540483121553087E9 ; 0.0
5 ; 1.5986502932860166E7 ; 6.583808636229854E8 ; 7.92445072501058E7 ; 3.2041046411912265E9 ; 0.0
6 ; 1.6059913490081567E7 ; 6.685588353922207E8 ; 9.523101018296596E7 ; 3.862485504814212E9 ; 0.0
7 ; 1.617906368710474E7 ; 6.80590252962898E8 ; 1.1129092367304753E8 ; 4.531044340206432E9 ; 0.0
8 ; 1.6355673587556472E7 ; 6.944751230896018E8 ; 1.2746998736015227E8 ; 5.211634593169331E9 ; 0.0
9 ; 1.6625262991845667E7 ; 7.102134506244526E8 ; 1.4382566094770876E8 ; 5.906109716258932E9 ; 0.0
10 ; 1.705230681742029E7 ; 7.278052384897646E8 ; 1.6045092393955442E8 ; 6.616323166883385E9 ; 0.0
11 ; 1.772624110445852E7 ; 7.472504876614897E8 ; 1.775032307569747E8 ; 7.344128405373149E9 ; 0.0
12 ; 1.8818933471259274E7 ; 7.685491971636759E8 ; 1.952294718614332E8 ; 8.091378893034638E9 ; 0.0
13 ; 1.9876862001211118E7 ; 7.917013640740092E8 ; 2.1404840533269247E8 ; 8.859928090198315E9 ; 0.0
14 ; 1.9988922978254307E7 ; 8.16706983540369E8 ; 2.3392526733390358E8 ; 9.651629454272324E9 ; 0.0
15 ; 2.0022643850263797E7 ; 8.435660488081706E8 ; 2.539141903121579E8 ; 1.0468336437812693E10 ; 0.0
16 ; 2.0066548488645107E7 ; 8.722785512581401E8 ; 2.739368341624217E8 ; 1.1311902486620863E10 ; 0.0
17 ; 2.0101921062441964E7 ; 9.028444804540199E8 ; 2.940033826510668E8 ; 1.2184181037879004E10 ; 0.0
18 ; 2.0141450303458806E7 ; 9.352638241995927E8 ; 3.141053037135087E8 ; 1.3087025518333023E10 ; 0.0
19 ; 2.0184739010375753E7 ; 9.695365686043025E8 ; 3.3424675401696754E8 ; 1.4022289342532616E10 ; 0.0
20 ; 2.0224865990162767E7 ; 1.0056626981566523E9 ; 3.544314930273433E8 ; 1.4991825911136919E10 ; 0.0
21 ; 2.0258696121071246E7 ; 1.0436421958045006E9 ; 3.7465635901750606E8 ; 1.5997488609293571E10 ; 0.0
22 ; 2.0305629348672777E7 ; 1.0834750430413084E9 ; 3.949150551385773E8 ; 1.7041130805098072E10 ; 0.0
23 ; 2.0344280801342286E7 ; 1.1251612199973643E9 ; 4.152206844872501E8 ; 1.812460584813938E10 ; 0.0
24 ; 2.0384817297437213E7 ; 1.1687007055349908E9 ; 4.355649652885924E8 ; 1.9249767068136745E10 ; 0.0
25 ; 2.042525731403576E7 ; 1.206221722735844E9 ; 4.559497825860296E8 ; 2.0418467773671738E10 ; 0.0
26 ; 2.045839402781395E7 ; 1.2062455352225032E9 ; 4.7637503990006536E8 ; 2.162468949640758E10 ; 0.0
27 ; 2.0503869072348934E7 ; 1.206270734409179E9 ; 4.9683343392787933E8 ; 2.2830935031630085E10 ; 0.0
28 ; 2.0543858780058477E7 ; 1.206297295083816E9 ; 5.173373030002283E8 ; 2.4037205766039265E10 ; 0.0
29 ; 2.0581941732861314E7 ; 1.2063251912683773E9 ; 5.378811617802868E8 ; 2.524350306112308E10 ; 0.0
30 ; 2.062186669281618E7 ; 1.2063543963182259E9 ; 5.584631035131481E8 ; 2.6449828252391457E10 ; 0.0
31 ; 2.06502247010245E7 ; 1.206384883019383E9 ; 5.790849702059642E8 ; 2.7656182648709682E10 ; 0.0
32 ; 2.0679368554795764E7 ; 1.2064166236830373E9 ; 5.997351949069887E8 ; 2.8862567531729065E10 ; 0.0
33 ; 2.0720954122801732E7 ; 1.206449590236772E9 ; 6.204145634617845E8 ; 3.00689841554121E10 ; 0.0
34 ; 2.076025198832501E7 ; 1.2064837543120482E9 ; 6.411355175845863E8 ; 3.1275433745648872E10 ; 0.0
35 ; 2.0792010257176578E7 ; 1.2065190873275666E9 ; 6.618957695729113E8 ; 3.2481917499960922E10 ; 0.0
36 ; 2.0833027935944542E7 ; 1.2065555605682125E9 ; 6.826877798300879E8 ; 3.368843658728849E10 ; 0.0
37 ; 2.085270696202267E7 ; 1.206593145259354E9 ; 7.035208077660325E8 ; 3.4894992147856705E10 ; 0.0
38 ; 2.088216644524909E7 ; 1.2066318126363397E9 ; 7.243735147280551E8 ; 3.610158529311606E10 ; 0.0
39 ; 2.0911485570086382E7 ; 1.2066715340091066E9 ; 7.452556811733042E8 ; 3.7308217105752396E10 ; 0.0
40 ; 2.0932724012378357E7 ; 1.2067122808218622E9 ; 7.661671667433906E8 ; 3.8514888639761505E10 ; 0.0
41 ; 2.0950100901375845E7 ; 1.2067540247078614E9 ; 7.870998907557689E8 ; 3.972160092058337E10 ; 0.0
42 ; 2.098274134398973E7 ; 1.2067967375393457E9 ; 8.080499916571448E8 ; 4.092835494529123E10 ; 0.0
43 ; 2.0994098807800002E7 ; 1.2068403914727461E9 ; 8.290327330011345E8 ; 4.2135151682830574E10 ; 0.0
44 ; 2.101317178911769E7 ; 1.2068849589892926E9 ; 8.500268318089346E8 ; 4.334199207430332E10 ; 0.0
45 ; 2.1036752255392767E7 ; 1.206930412931192E9 ; 8.710400035980523E8 ; 4.454887703329262E10 ; 0.0
46 ; 2.1050506093304414E7 ; 1.2069767265335684E9 ; 8.92076755853445E8 ; 4.575580744622381E10 ; 0.0
47 ; 2.1059721341471843E7 ; 1.2070238734523673E9 ; 9.131272619467494E8 ; 4.696278417275738E10 ; 0.0
48 ; 2.1072982073466863E7 ; 1.2070718277884433E9 ; 9.341869832882212E8 ; 4.816980804620975E10 ; 0.0
49 ; 2.1077363143863425E7 ; 1.2071205641080604E9 ; 9.552599653616881E8 ; 4.937687987399819E10 ; 0.0
50 ; 2.1091681597256757E7 ; 1.2071700574600317E9 ; 9.763373285055516E8 ; 5.0584000438106255E10 ; 0.0
51 ; 2.109467021831644E7 ; 1.2072202833897371E9 ; 9.974290101028084E8 ; 5.1791170495566284E10 ; 0.0
52 ; 2.1100772885855444E7 ; 1.2072712179502437E9 ; 1.0185236803211248E9 ; 5.2998390778956024E10 ; 0.0
53 ; 2.1103061718159378E7 ; 1.2073228377107623E9 ; 1.0396244532069802E9 ; 5.4205661996906265E10 ; 0.0
54 ; 2.110622032980173E7 ; 1.207375119762658E9 ; 1.0607275149251397E9 ; 5.541298483461703E10 ; 0.0
55 ; 2.110975752318983E7 ; 1.2074280417232335E9 ; 1.0818337352549415E9 ; 5.6620359954379684E10 ; 0.0
56 ; 2.111759749759067E7 ; 1.2074815817374852E9 ; 1.1029434927781312E9 ; 5.782778799610292E10 ; 0.0
57 ; 2.1126790869873133E7 ; 1.2075357184780369E9 ; 1.124061090275722E9 ; 5.903526957784041E10 ; 0.0
58 ; 2.112127624253878E7 ; 1.2075904311434298E9 ; 1.145187881145595E9 ; 6.024280529631844E10 ; 0.0
59 ; 2.1125291300969206E7 ; 1.2076456994549508E9 ; 1.1663091573881338E9 ; 6.1450395727461876E10 ; 0.0
60 ; 2.1133657478596963E7 ; 1.2077015036521602E9 ; 1.187434448689103E9 ; 6.2658041426916824E10 ; 0.0
61 ; 2.1136206308693014E7 ; 1.2077578244872766E9 ; 1.2085681061676998E9 ; 6.3865742930568985E10 ; 0.0
62 ; 2.113387879993823E7 ; 1.2078146432185593E9 ; 1.2297043124763927E9 ; 6.507350075505626E10 ; 0.0
63 ; 2.1134340924505383E7 ; 1.2078719416028235E9 ; 1.250838191276331E9 ; 6.628131539827482E10 ; 0.0
64 ; 2.1134485274510935E7 ; 1.2079297018872101E9 ; 1.2719725322008364E9 ; 6.748918733987764E10 ; 0.0
65 ; 2.1138545230379727E7 ; 1.2079879068003225E9 ; 1.2931070174753473E9 ; 6.869711704176485E10 ; 0.0
66 ; 2.1141881687302273E7 ; 1.208046539542832E9 ; 1.314245562705727E9 ; 6.990510494856517E10 ; 0.0
67 ; 2.1143840045816526E7 ; 1.2081055837776484E9 ; 1.3353874443930295E9 ; 7.1113151488108E10 ; 0.0
68 ; 2.114197664333482E7 ; 1.2081650236197414E9 ; 1.3565312844388459E9 ; 7.232125707188565E10 ; 0.0
69 ; 2.1143215107475005E7 ; 1.2082248436256838E9 ; 1.3776732610821807E9 ; 7.352942209550539E10 ; 0.0
70 ; 2.11338768536195E7 ; 1.208285028782993E9 ; 1.3988164761896558E9 ; 7.473764693913107E10 ; 0.0
71 ; 2.114415311044459E7 ; 1.208345564499331E9 ; 1.4199503530432754E9 ; 7.594593196791406E10 ; 0.0
72 ; 2.1136606541252814E7 ; 1.2084064365916157E9 ; 1.44109450615372E9 ; 7.715427753241339E10 ; 0.0
73 ; 2.113472074250036E7 ; 1.2084676312750962E9 ; 1.4622311126949728E9 ; 7.8362683969005E10 ; 0.0
74 ; 2.113939886026441E7 ; 1.208529135152435E9 ; 1.483365833437473E9 ; 7.95711516002801E10 ; 0.0
75 ; 2.1128662048687134E7 ; 1.2085909352028358E9 ; 1.5045052322977374E9 ; 8.077968073543254E10 ; 0.0
76 ; 2.1127547505198684E7 ; 1.2086530187712486E9 ; 1.5256338943464246E9 ; 8.198827167063538E10 ; 0.0
77 ; 2.1134835425177794E7 ; 1.2087153735576859E9 ; 1.5467614418516233E9 ; 8.319692468940663E10 ; 0.0
78 ; 2.1112502583924197E7 ; 1.208777987606672E9 ; 1.567896277276801E9 ; 8.440564006296432E10 ; 0.0
79 ; 2.10990386930011E7 ; 1.208840849296848E9 ; 1.5890087798607254E9 ; 8.5614418050571E10 ; 0.0
80 ; 2.1075577363687538E7 ; 1.2089039473307507E9 ; 1.6101078185537264E9 ; 8.682325889986784E10 ; 0.0
81 ; 2.1070317749734845E7 ; 1.2089672707247827E9 ; 1.631183395917414E9 ; 8.80321628471986E10 ; 0.0
82 ; 2.1038423910142258E7 ; 1.2090308087993846E9 ; 1.6522537136671488E9 ; 8.924113011792337E10 ; 0.0
83 ; 2.1025294134262484E7 ; 1.2090945511694221E9 ; 1.673292137577291E9 ; 9.045016092672275E10 ; 0.0
84 ; 2.101204898001232E7 ; 1.2091584877347927E9 ; 1.6943174317115536E9 ; 9.165925547789217E10 ; 0.0
85 ; 2.0999410852681886E7 ; 1.2092226086712618E9 ; 1.715329480691566E9 ; 9.286841396562695E10 ; 0.0
86 ; 2.0983342698165476E7 ; 1.2092869044215322E9 ; 1.7363288915442479E9 ; 9.407763657429822E10 ; 0.0
87 ; 2.0955847453150686E7 ; 1.2093513656865501E9 ; 1.7573122342424133E9 ; 9.528692347871976E10 ; 0.0
88 ; 2.0940147650390323E7 ; 1.2094159834170475E9 ; 1.778268081695564E9 ; 9.649627484440631E10 ; 0.0
89 ; 2.0922332578064922E7 ; 1.209480748805325E9 ; 1.7992082293459544E9 ; 9.770569082782336E10 ; 0.0
90 ; 2.0895596006777138E7 ; 1.2095456532772732E9 ; 1.8201305619240193E9 ; 9.89151715766287E10 ; 0.0
91 ; 2.0879924053499114E7 ; 1.209610688484631E9 ; 1.8410261579307964E9 ; 1.0012471722990596E11 ; 0.0
92 ; 2.08587027850911E7 ; 1.2096758462974796E9 ; 1.8619060819842956E9 ; 1.013343279183906E11 ; 0.0
93 ; 2.084139440098317E7 ; 1.2097411187969682E9 ; 1.8827647847693868E9 ; 1.0254400376468808E11 ; 0.0
94 ; 2.081988434727423E7 ; 1.209806498268271E9 ; 1.9036061791703699E9 ; 1.0375374488348505E11 ; 0.0
95 ; 2.0793726172260795E7 ; 1.209871977193769E9 ; 1.9244260635176442E9 ; 1.0496355138175331E11 ; 0.0
96 ; 2.0775252535344504E7 ; 1.2099375482464545E9 ; 1.945219789689905E9 ; 1.0617342335894708E11 ; 0.0
97 ; 2.0751182821508735E7 ; 1.2100032042835507E9 ; 1.9659950422252495E9 ; 1.0738336090719354E11 ; 0.0
98 ; 2.0725362559849348E7 ; 1.2100689383403478E9 ; 1.9867462250467582E9 ; 1.085933641114771E11 ; 0.0
99 ; 2.0706243052724186E7 ; 1.2101347436242428E9 ; 2.0074715876066074E9 ; 1.0980343304981744E11 ; 0.0
100 ; 2.068522116192022E7 ; 1.2102006135089836E9 ; 2.0281778306593316E9 ; 1.1101356779344168E11 ; 0.0
101 ; 2.0663636384365667E7 ; 1.2102665415291126E9 ; 2.0488630518212519E9 ; 1.1222376840695067E11 ; 0.0
102 ; 2.06369308057685E7 ; 1.2103325213745985E9 ; 2.0695266882056174E9 ; 1.1343403494847978E11 ; 0.0
103 ; 2.0612099747418493E7 ; 1.2103985468856573E9 ; 2.090163619011386E9 ; 1.1464436746985439E11 ; 0.0
104 ; 2.0586266109139115E7 ; 1.2104646120477545E9 ; 2.1107757187588043E9 ; 1.1585476601674004E11 ; 0.0
105 ; 2.056840948330455E7 ; 1.210530710986783E9 ; 2.1313619848679435E9 ; 1.170652306287878E11 ; 0.0
106 ; 2.0546391563620724E7 ; 1.210596837964411E9 ; 2.1519303943512483E9 ; 1.1827576133977458E11 ; 0.0
107 ; 2.0507456404395185E7 ; 1.2106629873735962E9 ; 2.172476785914869E9 ; 1.19486358177739E11 ; 0.0
108 ; 2.0489585277257185E7 ; 1.2107291537342591E9 ; 2.192984242319264E9 ; 1.206970211651126E11 ; 0.0
109 ; 2.0460538399786063E7 ; 1.2107953316891127E9 ; 2.213473827596521E9 ; 1.2190775031884685E11 ; 0.0
110 ; 2.043955424329684E7 ; 1.2108615159996395E9 ; 2.233934365996307E9 ; 1.2311854565053596E11 ; 0.0
111 ; 2.04089132133556E7 ; 1.2109277015422158E9 ; 2.2543739202396035E9 ; 1.243294071665356E11 ; 0.0
112 ; 2.0386528004644938E7 ; 1.2109938833043742E9 ; 2.274782833452959E9 ; 1.2554033486807782E11 ; 0.0
113 ; 2.036327786345756E7 ; 1.211060056381201E9 ; 2.295169361457604E9 ; 1.2675132875138219E11 ; 0.0
114 ; 2.032791883964619E7 ; 1.2111262159718657E9 ; 2.3155326393210616E9 ; 1.2796238880776338E11 ; 0.0
115 ; 2.0305987058730815E7 ; 1.211192357376274E9 ; 2.335860558160708E9 ; 1.2917351502373524E11 ; 0.0
116 ; 2.0274048351291925E7 ; 1.211258475991844E9 ; 2.3561665452194386E9 ; 1.3038470738111151E11 ; 0.0
117 ; 2.0246722831802733E7 ; 1.2113245673103979E9 ; 2.3764405935707307E9 ; 1.3159596585710335E11 ; 0.0
118 ; 2.0218054902040973E7 ; 1.2113906269151683E9 ; 2.3966873164025335E9 ; 1.3280729042441374E11 ; 0.0
119 ; 2.018691636803337E7 ; 1.21145665047791E9 ; 2.4169053713045745E9 ; 1.340186810513289E11 ; 0.0
120 ; 2.0153763416366152E7 ; 1.2115226337561216E9 ; 2.437092287672608E9 ; 1.3523013770180681E11 ; 0.0
121 ; 2.012667816277824E7 ; 1.211588572590362E9 ; 2.457246051088974E9 ; 1.3644166033556293E11 ; 0.0
122 ; 2.0094067026753474E7 ; 1.2116544629016702E9 ; 2.4773727292517524E9 ; 1.376532489081533E11 ; 0.0
123 ; 2.006997864840307E7 ; 1.2117203006890726E9 ; 2.497466796278506E9 ; 1.3886490337105496E11 ; 0.0
124 ; 2.004340862667139E7 ; 1.2117860820271866E9 ; 2.517536774926909E9 ; 1.4007662367174405E11 ; 0.0
125 ; 2.0004499379399057E7 ; 1.2118518030639057E9 ; 2.5375801835535803E9 ; 1.4128840975377124E11 ; 0.0
126 ; 1.9967381057471503E7 ; 1.2119174600181727E9 ; 2.557584682932979E9 ; 1.4250026155683514E11 ; 0.0
127 ; 1.9941025765153322E7 ; 1.2119830491778286E9 ; 2.5775520639904504E9 ; 1.437121790168533E11 ; 0.0
128 ; 1.9904796206676435E7 ; 1.2120485668975441E9 ; 2.597493089755604E9 ; 1.4492416206603113E11 ; 0.0
129 ; 1.987788782763735E7 ; 1.2121140095968215E9 ; 2.6173978859622803E9 ; 1.4613621063292868E11 ; 0.0
130 ; 1.9840789807484414E7 ; 1.2121793737580707E9 ; 2.6372757737899175E9 ; 1.473483246425255E11 ; 0.0
131 ; 1.979247685936696E7 ; 1.2122446559247534E9 ; 2.657116563597402E9 ; 1.4856050401628357E11 ; 0.0
132 ; 1.974887521848392E7 ; 1.2123098526995933E9 ; 2.676909040456769E9 ; 1.497727486722083E11 ; 0.0
133 ; 1.9705999179407872E7 ; 1.2123749607428515E9 ; 2.696657915675253E9 ; 1.509850585249079E11 ; 0.0
134 ; 1.96519757930573E7 ; 1.2124399767706633E9 ; 2.716363914854661E9 ; 1.5219743348565076E11 ; 0.0
135 ; 1.9606683060060076E7 ; 1.2125048975534322E9 ; 2.7360158906477184E9 ; 1.5340987346242142E11 ; 0.0
136 ; 1.9556371531961925E7 ; 1.2125697199142847E9 ; 2.7556225737077785E9 ; 1.5462237835997485E11 ; 0.0
137 ; 1.950495003696829E7 ; 1.2126344407275758E9 ; 2.7751789452397404E9 ; 1.5583494807988913E11 ; 0.0
138 ; 1.946319821819514E7 ; 1.2126990569174497E9 ; 2.7946838952767086E9 ; 1.570475825206167E11 ; 0.0
139 ; 1.9407450976010025E7 ; 1.2127635654564517E9 ; 2.8141470934949036E9 ; 1.5826028157753415E11 ; 0.0
140 ; 1.936317910849788E7 ; 1.2128279633641872E9 ; 2.8335545444709134E9 ; 1.594730451429906E11 ; 0.0
141 ; 1.9316941733790003E7 ; 1.2128922477060297E9 ; 2.8529177235794115E9 ; 1.606858731063548E11 ; 0.0
142 ; 1.926423025421867E7 ; 1.212956415591872E9 ; 2.8722346653132014E9 ; 1.6189876535406082E11 ; 0.0
143 ; 1.921068832746002E7 ; 1.2130204641749234E9 ; 2.89149889556742E9 ; 1.6311172176965268E11 ; 0.0
144 ; 1.916561406979549E7 ; 1.2130843906505468E9 ; 2.91070958389488E9 ; 1.643247422338276E11 ; 0.0
145 ; 1.9133220633866124E7 ; 1.2131481922551374E9 ; 2.9298751979646754E9 ; 1.6553782662447815E11 ; 0.0
146 ; 1.909796452044911E7 ; 1.2132118662650404E9 ; 2.9490084185985417E9 ; 1.6675097481673328E11 ; 0.0
147 ; 1.906584317910222E7 ; 1.2132754099955044E9 ; 2.968106383118991E9 ; 1.6796418668299832E11 ; 0.0
148 ; 1.903104590757912E7 ; 1.213338820799674E9 ; 2.9871722262980933E9 ; 1.6917746209299384E11 ; 0.0
149 ; 1.899522825852779E7 ; 1.2134020960676146E9 ; 3.0062032722056723E9 ; 1.7039080091379352E11 ; 0.0
150 ; 1.8964733918020047E7 ; 1.2134652332253697E9 ; 3.0251985004642E9 ; 1.7160420300986115E11 ; 0.0
151 ; 1.893117874727082E7 ; 1.213528229734056E9 ; 3.0441632343822203E9 ; 1.7281766824308652E11 ; 0.0
152 ; 1.8886604038703114E7 ; 1.2135910830889819E9 ; 3.063094413129491E9 ; 1.740311964728206E11 ; 0.0
153 ; 1.8865538510556668E7 ; 1.213653790818801E9 ; 3.081981017168194E9 ; 1.7524478755590958E11 ; 0.0
154 ; 1.8829199322332412E7 ; 1.2137163504846935E9 ; 3.1008465556787505E9 ; 1.7645844134672836E11 ; 0.0
155 ; 1.8792622843278408E7 ; 1.2137787596795743E9 ; 3.119675755001083E9 ; 1.7767215769721304E11 ; 0.0
156 ; 1.8760517058161087E7 ; 1.2138410160273283E9 ; 3.1384683778443613E9 ; 1.788859364568926E11 ; 0.0
157 ; 1.872404741294562E7 ; 1.2139031171820712E9 ; 3.1572288949025226E9 ; 1.8009977747291992E11 ; 0.0
158 ; 1.869813800094548E7 ; 1.213965060827437E9 ; 3.1759529423154683E9 ; 1.81313680590102E11 ; 0.0
159 ; 1.8657617821026497E7 ; 1.2140268446758852E9 ; 3.194651080316414E9 ; 1.825276456509294E11 ; 0.0
160 ; 1.862156107749999E7 ; 1.2140884664680362E9 ; 3.21330869813744E9 ; 1.837416724956053E11 ; 0.0
161 ; 1.858908705744547E7 ; 1.2141499239720242E9 ; 3.23193025921494E9 ; 1.8495576096207333E11 ; 0.0
162 ; 1.8556318182060584E7 ; 1.2142112149828758E9 ; 3.2505193462723856E9 ; 1.8616991088604535E11 ; 0.0
163 ; 1.8516343756778E7 ; 1.2142723373219056E9 ; 3.2690756644544463E9 ; 1.8738412210102823E11 ; 0.0
164 ; 1.848448216370343E7 ; 1.2143332888361332E9 ; 3.2875920082112246E9 ; 1.8859839443835013E11 ; 0.0
165 ; 1.8446816943120673E7 ; 1.2143940673977213E9 ; 3.306076490374928E9 ; 1.8981272772718625E11 ; 0.0
166 ; 1.8413329460835487E7 ; 1.2144546709034276E9 ; 3.3245233073180485E9 ; 1.9102712179458398E11 ; 0.0
167 ; 1.8377164556375057E7 ; 1.2145150972740798E9 ; 3.342936636778884E9 ; 1.9224157646548743E11 ; 0.0
168 ; 1.8337745488001347E7 ; 1.2145753444540648E9 ; 3.361313801335259E9 ; 1.934560915627615E11 ; 0.0
169 ; 1.8307347704422764E7 ; 1.2146354104108343E9 ; 3.3796515468232603E9 ; 1.9467066690721558E11 ; 0.0
170 ; 1.8267074974542413E7 ; 1.2146952931344285E9 ; 3.3979588945276833E9 ; 1.958853023176264E11 ; 0.0
171 ; 1.8239969540230628E7 ; 1.214754990637013E9 ; 3.416225969502226E9 ; 1.9709999761076083E11 ; 0.0
172 ; 1.819225745292535E7 ; 1.2148145009524322E9 ; 3.4344659390424566E9 ; 1.9831475260139786E11 ; 0.0
173 ; 1.8167613236778386E7 ; 1.2148738221357772E9 ; 3.452658196495382E9 ; 1.9952956710235028E11 ; 0.0
174 ; 1.812692459214797E7 ; 1.2149329522629662E9 ; 3.47082580973216E9 ; 2.0074444092448605E11 ; 0.0
175 ; 1.8103560636283956E7 ; 1.214991889430339E9 ; 3.488952734324308E9 ; 2.0195937387674902E11 ; 0.0
176 ; 1.8077306860746358E7 ; 1.2150506317542658E9 ; 3.507056294960592E9 ; 2.0317436576617935E11 ; 0.0
177 ; 1.8048258186933298E7 ; 1.215109177370766E9 ; 3.525133601821338E9 ; 2.0438941639793362E11 ; 0.0
178 ; 1.8021022615676254E7 ; 1.2151675244351401E9 ; 3.5431818600082717E9 ; 2.0560452557530438E11 ; 0.0
179 ; 1.8006854140356682E7 ; 1.2152256711216168E9 ; 3.561202882623948E9 ; 2.0681969309973953E11 ; 0.0
180 ; 1.7970763876001637E7 ; 1.215283615623004E9 ; 3.5792097367643046E9 ; 2.0803491877086115E11 ; 0.0
181 ; 1.7941942525422066E7 ; 1.2153413561503563E9 ; 3.5971805006403065E9 ; 2.0925020238648416E11 ; 0.0
182 ; 1.7913821545283865E7 ; 1.2153988909326541E9 ; 3.6151224431657286E9 ; 2.1046554374263452E11 ; 0.0
183 ; 1.7883734980504744E7 ; 1.215456218216486E9 ; 3.6330362647110124E9 ; 2.1168094263356717E11 ; 0.0
184 ; 1.7858670080932785E7 ; 1.2155133362657495E9 ; 3.650919999691517E9 ; 2.1289639885178366E11 ; 0.0
185 ; 1.783320886175729E7 ; 1.2155702433613532E9 ; 3.6687786697724495E9 ; 2.141119121880494E11 ; 0.0
186 ; 1.7803107505323518E7 ; 1.215626937800936E9 ; 3.686611878634207E9 ; 2.1532748243141077E11 ; 0.0
187 ; 1.77742825458743E7 ; 1.215683417898588E9 ; 3.70441498613953E9 ; 2.165431093692117E11 ; 0.0
188 ; 1.7743965054940343E7 ; 1.2157396819845848E9 ; 3.7221892686854043E9 ; 2.177587927871103E11 ; 0.0
189 ; 1.770892149970063E7 ; 1.2157957284051282E9 ; 3.7399332337403445E9 ; 2.1897453246909488E11 ; 0.0
190 ; 1.7686431334082525E7 ; 1.2158515555220954E9 ; 3.757642155240045E9 ; 2.201903281975E11 ; 0.0
191 ; 1.76535188830287E7 ; 1.2159071617127948E9 ; 3.7753285865741277E9 ; 2.214061797530221E11 ; 0.0
192 ; 1.763449430599596E7 ; 1.2159625453697314E9 ; 3.792982105457156E9 ; 2.226220869147349E11 ; 0.0
193 ; 1.7602564788904548E7 ; 1.2160177049003778E9 ; 3.810616599763152E9 ; 2.238380494601046E11 ; 0.0
194 ; 1.756913941715569E7 ; 1.2160726387269526E9 ; 3.828219164552057E9 ; 2.25054067165005E11 ; 0.0
195 ; 1.75446783111233E7 ; 1.2161273452862058E9 ; 3.8457883039692125E9 ; 2.2627013980373196E11 ; 0.0
