CSV File for the Network on Day 357
1 - Minute m 
2 - Power Consumed at minute m 
3 - Power Produced at minute m 
4 - Energy Consumed since the beginning of the day 
5 - Energy Produced since the beginning of the day 
6 - Energy Lost since the beginning of the day 
 
0 ; 3.8528868394336686E7 ; 6.3449898207016E8 ; 0.0 ; 0.0 ; 0.0
1 ; 3.857274502645986E7 ; 6.354093340997816E8 ; 3.8528868394336686E7 ; 6.3449898207016E8 ; 0.0
2 ; 3.861153922120917E7 ; 6.381731154161972E8 ; 7.710161342079654E7 ; 1.2699083161699417E9 ; 0.0
3 ; 3.866670091705608E7 ; 6.427903460755816E8 ; 1.1571315264200571E8 ; 1.9080814315861387E9 ; 0.0
4 ; 3.871395701903324E7 ; 6.49261044110975E8 ; 1.543798535590618E8 ; 2.5508717776617203E9 ; 0.0
5 ; 3.878560681188589E7 ; 6.575852254125977E8 ; 1.9309381057809502E8 ; 3.2001328217726955E9 ; 0.0
6 ; 3.887916339341163E7 ; 6.677629036199317E8 ; 2.318794173899809E8 ; 3.857718047185293E9 ; 0.0
7 ; 3.9006161163671784E7 ; 6.797940900272478E8 ; 2.7075858078339255E8 ; 4.525480950805225E9 ; 0.0
8 ; 3.919280280999341E7 ; 6.936787935040796E8 ; 3.0976474194706434E8 ; 5.205275040832473E9 ; 0.0
9 ; 3.9468637366495624E7 ; 7.094170204319463E8 ; 3.489575447570577E8 ; 5.898953834336553E9 ; 0.0
10 ; 3.990919427645422E7 ; 7.27008774658372E8 ; 3.8842618212355334E8 ; 6.608370854768499E9 ; 0.0
11 ; 4.0598135515075095E7 ; 7.464540574689834E8 ; 4.2833537640000755E8 ; 7.335379629426871E9 ; 0.0
12 ; 4.170815942531943E7 ; 7.677528675781538E8 ; 4.6893351191508263E8 ; 8.081833686895855E9 ; 0.0
13 ; 4.277292208205445E7 ; 7.909052011383588E8 ; 5.1064167134040207E8 ; 8.849586554474009E9 ; 0.0
14 ; 4.289231394868496E7 ; 8.1591105176808E8 ; 5.534145934224565E8 ; 9.640491755612368E9 ; 0.0
15 ; 4.294097752234144E7 ; 8.427704105977827E8 ; 5.963069073711414E8 ; 1.0456402807380447E10 ; 0.0
16 ; 4.299610531102879E7 ; 8.714832663331974E8 ; 6.392478848934829E8 ; 1.129917321797823E10 ; 0.0
17 ; 4.303623262898788E7 ; 9.020496053348409E8 ; 6.822439902045118E8 ; 1.2170656484311426E10 ; 0.0
18 ; 4.3095778327000245E7 ; 9.344694117124934E8 ; 7.252802228334997E8 ; 1.3072706089646267E10 ; 0.0
19 ; 4.314669966387713E7 ; 9.687426674331149E8 ; 7.683760011604999E8 ; 1.400717550135876E10 ; 0.0
20 ; 4.319334112849891E7 ; 1.0048693524405302E9 ; 8.115227008243771E8 ; 1.4975918168791876E10 ; 0.0
21 ; 4.3238871476078495E7 ; 1.0428494447850921E9 ; 8.54716041952876E8 ; 1.5980787521232407E10 ; 0.0
22 ; 4.3288218239997774E7 ; 1.0826829207614512E9 ; 8.979549134289545E8 ; 1.7023636966017498E10 ; 0.0
23 ; 4.334897528235099E7 ; 1.1243697550525355E9 ; 9.412431316689522E8 ; 1.810631988677895E10 ; 0.0
24 ; 4.339132476159612E7 ; 1.167909920877853E9 ; 9.845921069513032E8 ; 1.9230689641831486E10 ; 0.0
25 ; 4.344677077459011E7 ; 1.2054316355333924E9 ; 1.0279834317128993E9 ; 2.039859956270934E10 ; 0.0
26 ; 4.3496320966985986E7 ; 1.2054561567645445E9 ; 1.0714302024874895E9 ; 2.1604031198242733E10 ; 0.0
27 ; 4.3545882077075735E7 ; 1.2054820700661945E9 ; 1.1149265234544754E9 ; 2.280948735500728E10 ; 0.0
28 ; 4.3589166363619685E7 ; 1.205509344311664E9 ; 1.1584724055315511E9 ; 2.401496942507347E10 ; 0.0
29 ; 4.363736068570867E7 ; 1.2055379476568027E9 ; 1.2020615718951707E9 ; 2.5220478769385136E10 ; 0.0
30 ; 4.369296178145479E7 ; 1.2055678476797533E9 ; 1.2456989325808794E9 ; 2.642601671704194E10 ; 0.0
31 ; 4.373035164862245E7 ; 1.2055990115148866E9 ; 1.2893918943623343E9 ; 2.763158456472169E10 ; 0.0
32 ; 4.37764095358125E7 ; 1.2056314059800847E9 ; 1.3331222460109568E9 ; 2.8837183576236576E10 ; 0.0
33 ; 4.382435677338856E7 ; 1.2056649976967416E9 ; 1.3768986555467691E9 ; 3.004281498221666E10 ; 0.0
34 ; 4.386299120120426E7 ; 1.2056997532020035E9 ; 1.4207230123201578E9 ; 3.1248479979913403E10 ; 0.0
35 ; 4.39084557358489E7 ; 1.2057356390529246E9 ; 1.464586003521362E9 ; 3.2454179733115406E10 ; 0.0
36 ; 4.394334236401596E7 ; 1.2057726219223578E9 ; 1.508494459257211E9 ; 3.365991537216833E10 ; 0.0
37 ; 4.398665824808391E7 ; 1.205810668686526E9 ; 1.552437801621227E9 ; 3.486568799409069E10 ; 0.0
38 ; 4.4026903003876016E7 ; 1.2058497465043256E9 ; 1.5964244598693109E9 ; 3.6071498662777214E10 ; 0.0
39 ; 4.406284362576537E7 ; 1.2058898228885174E9 ; 1.6404513628731868E9 ; 3.727734840928154E10 ; 0.0
40 ; 4.408885427883063E7 ; 1.2059308657690341E9 ; 1.6845142064989522E9 ; 3.848323823217006E10 ; 0.0
41 ; 4.4122936388069846E7 ; 1.2059728435487003E9 ; 1.7286030607777827E9 ; 3.9689169097939095E10 ; 0.0
42 ; 4.415357163423291E7 ; 1.2060157251517205E9 ; 1.7727259971658525E9 ; 4.089514194148779E10 ; 0.0
43 ; 4.418237418650637E7 ; 1.2060594800653157E9 ; 1.8168795688000855E9 ; 4.210115766663951E10 ; 0.0
44 ; 4.421090577186099E7 ; 1.206104078374933E9 ; 1.8610619429865918E9 ; 4.330721714670483E10 ; 0.0
45 ; 4.423625116686424E7 ; 1.206149490793458E9 ; 1.905272848758453E9 ; 4.451332122507976E10 ; 0.0
46 ; 4.425963733833111E7 ; 1.206195688684876E9 ; 1.949509099925317E9 ; 4.5719470715873215E10 ; 0.0
47 ; 4.4274969642943405E7 ; 1.206242644082822E9 ; 1.9937687372636483E9 ; 4.692566640455809E10 ; 0.0
48 ; 4.4297620743220076E7 ; 1.2062903297044668E9 ; 2.0380437069065917E9 ; 4.8131909048640915E10 ; 0.0
49 ; 4.431637604202695E7 ; 1.2063387189601579E9 ; 2.0823413276498117E9 ; 4.933819937834538E10 ; 0.0
50 ; 4.432974859474706E7 ; 1.2063877859592357E9 ; 2.1266577036918387E9 ; 5.054453809730554E10 ; 0.0
51 ; 4.434463375970735E7 ; 1.2064375055124207E9 ; 2.170987452286586E9 ; 5.175092588326478E10 ; 0.0
52 ; 4.43569178536506E7 ; 1.2064878531311417E9 ; 2.2153320860462933E9 ; 5.29573633887772E10 ; 0.0
53 ; 4.437009266579736E7 ; 1.2065388050241652E9 ; 2.259689003899944E9 ; 5.416385124190834E10 ; 0.0
54 ; 4.438905465447785E7 ; 1.2065903380918527E9 ; 2.304059096565741E9 ; 5.53703900469325E10 ; 0.0
55 ; 4.4394642556337394E7 ; 1.2066424299183562E9 ; 2.348448151220219E9 ; 5.657698038502435E10 ; 0.0
56 ; 4.440383357416171E7 ; 1.2066950587620296E9 ; 2.3928427937765565E9 ; 5.778362281494271E10 ; 0.0
57 ; 4.441980727625271E7 ; 1.2067482035443249E9 ; 2.437246627350718E9 ; 5.899031787370474E10 ; 0.0
58 ; 4.443223540984184E7 ; 1.2068018438374026E9 ; 2.481666434626971E9 ; 6.019706607724907E10 ; 0.0
59 ; 4.444770907099783E7 ; 1.2068559598506804E9 ; 2.526098670036813E9 ; 6.140386792108647E10 ; 0.0
60 ; 4.4448836916397564E7 ; 1.2069105324165108E9 ; 2.5705463791078105E9 ; 6.261072388093715E10 ; 0.0
61 ; 4.445386698768974E7 ; 1.206965542975163E9 ; 2.614995216024208E9 ; 6.381763441335366E10 ; 0.0
62 ; 4.446758097856141E7 ; 1.207020973559272E9 ; 2.659449083011898E9 ; 6.502459995632883E10 ; 0.0
63 ; 4.447388690112953E7 ; 1.2070768067778883E9 ; 2.7039166639904594E9 ; 6.62316209298881E10 ; 0.0
64 ; 4.448375795071534E7 ; 1.2071330258002594E9 ; 2.748390550891589E9 ; 6.7438697736665985E10 ; 0.0
65 ; 4.448983955076221E7 ; 1.207189614339447E9 ; 2.7928743088423047E9 ; 6.864583076246625E10 ; 0.0
66 ; 4.450112264345698E7 ; 1.2072465566358805E9 ; 2.837364148393067E9 ; 6.98530203768057E10 ; 0.0
67 ; 4.4511307500394784E7 ; 1.207303837440928E9 ; 2.881865271036524E9 ; 7.106026693344157E10 ; 0.0
68 ; 4.451456403798578E7 ; 1.2073614420005586E9 ; 2.9263765785369186E9 ; 7.22675707708825E10 ; 0.0
69 ; 4.4517163455993176E7 ; 1.207419356039158E9 ; 2.9708911425749044E9 ; 7.347493221288307E10 ; 0.0
70 ; 4.452076990460198E7 ; 1.2074775657435513E9 ; 3.0154083060308976E9 ; 7.468235156892223E10 ; 0.0
71 ; 4.452578106000809E7 ; 1.2075360577472763E9 ; 3.0599290759354997E9 ; 7.588982913466577E10 ; 0.0
72 ; 4.453680496065408E7 ; 1.2075948191151483E9 ; 3.1044548569955077E9 ; 7.709736519241306E10 ; 0.0
73 ; 4.454158486695598E7 ; 1.2076538373281431E9 ; 3.148991661956162E9 ; 7.83049600115282E10 ; 0.0
74 ; 4.454546070581581E7 ; 1.2077131002686262E9 ; 3.1935332468231177E9 ; 7.951261384885634E10 ; 0.0
75 ; 4.454545342705379E7 ; 1.2077725962059462E9 ; 3.2380787075289335E9 ; 8.072032694912497E10 ; 0.0
76 ; 4.455403359070272E7 ; 1.207832313782412E9 ; 3.2826241609559875E9 ; 8.192809954533092E10 ; 0.0
77 ; 4.4558391562811315E7 ; 1.207892241999657E9 ; 3.32717819454669E9 ; 8.313593185911333E10 ; 0.0
78 ; 4.4542443980207615E7 ; 1.2079523702054057E9 ; 3.3717365861095014E9 ; 8.434382410111299E10 ; 0.0
79 ; 4.453239445609005E7 ; 1.2080126880806456E9 ; 3.416279030089709E9 ; 8.555177647131839E10 ; 0.0
80 ; 4.452530152435473E7 ; 1.2080731856272016E9 ; 3.460811424545799E9 ; 8.675978915939903E10 ; 0.0
81 ; 4.450752679967502E7 ; 1.2081338531557195E9 ; 3.5053367260701537E9 ; 8.796786234502623E10 ; 0.0
82 ; 4.450155024423232E7 ; 1.2081946812740502E9 ; 3.5498442528698287E9 ; 8.917599619818195E10 ; 0.0
83 ; 4.4488759848952785E7 ; 1.2082556608760378E9 ; 3.594345803114061E9 ; 9.0384190879456E10 ; 0.0
84 ; 4.447779197279245E7 ; 1.2083167831306953E9 ; 3.6388345629630136E9 ; 9.159244654033203E10 ; 0.0
85 ; 4.446075118400269E7 ; 1.2083780394717755E9 ; 3.6833123549358063E9 ; 9.280076332346272E10 ; 0.0
86 ; 4.44521556120898E7 ; 1.2084394215877166E9 ; 3.727773106119809E9 ; 9.40091413629345E10 ; 0.0
87 ; 4.443919276357869E7 ; 1.2085009214119606E9 ; 3.772225261731899E9 ; 9.521758078452222E10 ; 0.0
88 ; 4.441910814004545E7 ; 1.208562531113638E9 ; 3.8166644544954777E9 ; 9.642608170593417E10 ; 0.0
89 ; 4.440613941597028E7 ; 1.2086242430886018E9 ; 3.8610835626355233E9 ; 9.76346442370478E10 ; 0.0
90 ; 4.438332532038326E7 ; 1.208686049950807E9 ; 3.9054897020514936E9 ; 9.884326848013641E10 ; 0.0
91 ; 4.436941226166548E7 ; 1.208747944524024E9 ; 3.9498730273718767E9 ; 1.0005195453008722E11 ; 0.0
92 ; 4.435546329162337E7 ; 1.2088099198338754E9 ; 3.994242439633542E9 ; 1.0126070247461124E11 ; 0.0
93 ; 4.4342584075884625E7 ; 1.208871969100185E9 ; 4.0385979029251657E9 ; 1.0246951239444511E11 ; 0.0
94 ; 4.432668461541948E7 ; 1.20893408572963E9 ; 4.0829404870010505E9 ; 1.036783843635453E11 ; 0.0
95 ; 4.430972401499523E7 ; 1.2089962633086867E9 ; 4.12726717161647E9 ; 1.0488731844927493E11 ; 0.0
96 ; 4.429094378599246E7 ; 1.2090584955968564E9 ; 4.171576895631465E9 ; 1.0609631471258362E11 ; 0.0
97 ; 4.427349350724532E7 ; 1.2091207765201635E9 ; 4.2158678394174576E9 ; 1.0730537320818048E11 ; 0.0
98 ; 4.425551169656463E7 ; 1.2091831001649184E9 ; 4.260141332924703E9 ; 1.0851449398470064E11 ; 0.0
99 ; 4.4235961598327816E7 ; 1.20924546077173E9 ; 4.304396844621267E9 ; 1.0972367708486555E11 ; 0.0
100 ; 4.42200444498699E7 ; 1.2093078527297595E9 ; 4.348632806219595E9 ; 1.1093292254563728E11 ; 0.0
101 ; 4.4198851298549056E7 ; 1.2093702705712132E9 ; 4.392852850669465E9 ; 1.1214223039836705E11 ; 0.0
102 ; 4.417969730480152E7 ; 1.2094327089660535E9 ; 4.437051701968014E9 ; 1.1335160066893826E11 ; 0.0
103 ; 4.415494118165964E7 ; 1.209495162716929E9 ; 4.481231399272816E9 ; 1.1456103337790431E11 ; 0.0
104 ; 4.413322685656567E7 ; 1.20955762675431E9 ; 4.525386340454475E9 ; 1.1577052854062125E11 ; 0.0
105 ; 4.411241886592961E7 ; 1.2096200961318223E9 ; 4.569519567311041E9 ; 1.1698008616737555E11 ; 0.0
106 ; 4.409019393139987E7 ; 1.209682566021774E9 ; 4.6136319861769705E9 ; 1.1818970626350737E11 ; 0.0
107 ; 4.406872631767621E7 ; 1.2097450317108612E9 ; 4.657722180108371E9 ; 1.1939938882952914E11 ; 0.0
108 ; 4.404803559616247E7 ; 1.2098074885960503E9 ; 4.701790906426047E9 ; 1.2060913386124E11 ; 0.0
109 ; 4.4026815926549435E7 ; 1.2098699321806307E9 ; 4.74583894202221E9 ; 1.2181894134983606E11 ; 0.0
110 ; 4.400003836187083E7 ; 1.209932358070425E9 ; 4.789865757948759E9 ; 1.230288112820167E11 ; 0.0
111 ; 4.397794584580622E7 ; 1.2099947619701557E9 ; 4.83386579631063E9 ; 1.2423874364008711E11 ; 0.0
112 ; 4.395200864105291E7 ; 1.2100571396799576E9 ; 4.877843742156436E9 ; 1.2544873840205727E11 ; 0.0
113 ; 4.3932306498659804E7 ; 1.2101194870920353E9 ; 4.921795750797489E9 ; 1.2665879554173723E11 ; 0.0
114 ; 4.3905479064169206E7 ; 1.210181800187452E9 ; 4.965728057296149E9 ; 1.2786891502882927E11 ; 0.0
115 ; 4.3882609801120445E7 ; 1.2102440750330513E9 ; 5.009633536360318E9 ; 1.2907909682901672E11 ; 0.0
116 ; 4.384824899106337E7 ; 1.2103063077785027E9 ; 5.053516146161439E9 ; 1.3028934090404977E11 ; 0.0
117 ; 4.382819546830197E7 ; 1.2103684946534653E9 ; 5.097364395152502E9 ; 1.3149964721182828E11 ; 0.0
118 ; 4.379988179648163E7 ; 1.2104306319648676E9 ; 5.141192590620804E9 ; 1.3271001570648175E11 ; 0.0
119 ; 4.376658166497902E7 ; 1.2104927160942934E9 ; 5.184992472417286E9 ; 1.3392044633844662E11 ; 0.0
120 ; 4.3745936926210076E7 ; 1.2105547434954758E9 ; 5.228759054082265E9 ; 1.3513093905454092E11 ; 0.0
121 ; 4.371952073773734E7 ; 1.2106167106918893E9 ; 5.272504991008475E9 ; 1.363414937980364E11 ; 0.0
122 ; 4.368899273187597E7 ; 1.2106786142744381E9 ; 5.316224511746213E9 ; 1.375521105087283E11 ; 0.0
123 ; 4.3661280289073005E7 ; 1.2107404508992367E9 ; 5.359913504478089E9 ; 1.3876278912300275E11 ; 0.0
124 ; 4.36367303996824E7 ; 1.2108022172854779E9 ; 5.403574784767162E9 ; 1.3997352957390198E11 ; 0.0
125 ; 4.360858450031391E7 ; 1.2108639102133865E9 ; 5.447211515166844E9 ; 1.4118433179118747E11 ; 0.0
126 ; 4.3572103379953995E7 ; 1.2109255265222511E9 ; 5.490820099667158E9 ; 1.4239519570140085E11 ; 0.0
127 ; 4.354270139251309E7 ; 1.2109870631085362E9 ; 5.534392203047112E9 ; 1.436061212279231E11 ; 0.0
128 ; 4.351568236906226E7 ; 1.2110485169240654E9 ; 5.577934904439626E9 ; 1.4481710829103165E11 ; 0.0
129 ; 4.348327628694717E7 ; 1.2111098849742775E9 ; 5.621450586808688E9 ; 1.4602815680795572E11 ; 0.0
130 ; 4.344871621237331E7 ; 1.2111711643165503E9 ; 5.664933863095635E9 ; 1.4723926669293E11 ; 0.0
131 ; 4.3396601373677924E7 ; 1.2112323520585885E9 ; 5.708382579308009E9 ; 1.4845043785724655E11 ; 0.0
132 ; 4.335564805529931E7 ; 1.211293445356874E9 ; 5.751779180681687E9 ; 1.4966167020930515E11 ; 0.0
133 ; 4.330694408014166E7 ; 1.2113544414151783E9 ; 5.795134828736987E9 ; 1.5087296365466202E11 ; 0.0
134 ; 4.326601957780682E7 ; 1.211415337483128E9 ; 5.838441772817129E9 ; 1.520843180960772E11 ; 0.0
135 ; 4.3218613435289115E7 ; 1.2114761308548286E9 ; 5.881707792394936E9 ; 1.5329573343356033E11 ; 0.0
136 ; 4.31665260794318E7 ; 1.21153681886754E9 ; 5.924926405830225E9 ; 1.5450720956441516E11 ; 0.0
137 ; 4.311885859276804E7 ; 1.2115973989004006E9 ; 5.968092931909657E9 ; 1.557187463832827E11 ; 0.0
138 ; 4.3083162235874526E7 ; 1.211657868373203E9 ; 6.011211790502424E9 ; 1.569303437821831E11 ; 0.0
139 ; 4.302759784977896E7 ; 1.2117182247452133E9 ; 6.054294952738298E9 ; 1.581420016505563E11 ; 0.0
140 ; 4.2979028452549316E7 ; 1.2117784655140352E9 ; 6.097322550588078E9 ; 1.593537198753015E11 ; 0.0
141 ; 4.292794715498203E7 ; 1.2118385882145185E9 ; 6.140301579040627E9 ; 1.6056549834081555E11 ; 0.0
142 ; 4.287561365204532E7 ; 1.211898590417707E9 ; 6.183229526195608E9 ; 1.6177733692903006E11 ; 0.0
143 ; 4.283403957371326E7 ; 1.2119584697298236E9 ; 6.226105139847653E9 ; 1.6298923551944775E11 ; 0.0
144 ; 4.277488349131156E7 ; 1.212018223791299E9 ; 6.268939179421367E9 ; 1.6420119398917758E11 ; 0.0
145 ; 4.274817984990184E7 ; 1.2120778502758298E9 ; 6.311714062912679E9 ; 1.6541321221296887E11 ; 0.0
146 ; 4.271133904831878E7 ; 1.2121373468894746E9 ; 6.354462242762581E9 ; 1.666252900632447E11 ; 0.0
147 ; 4.267726150911507E7 ; 1.2121967113697839E9 ; 6.3971735818109E9 ; 1.6783742741013416E11 ; 0.0
148 ; 4.264381559780699E7 ; 1.2122559414849606E9 ; 6.439850843320015E9 ; 1.6904962412150394E11 ; 0.0
149 ; 4.260666957610103E7 ; 1.2123150350330498E9 ; 6.482494658917822E9 ; 1.702618800629889E11 ; 0.0
150 ; 4.2576774462737784E7 ; 1.2123739898411615E9 ; 6.525101328493923E9 ; 1.7147419509802194E11 ; 0.0
151 ; 4.2540721236826785E7 ; 1.2124328037647197E9 ; 6.567678102956661E9 ; 1.726865690878631E11 ; 0.0
152 ; 4.2512792713456415E7 ; 1.2124914746867366E9 ; 6.610218824193488E9 ; 1.738990018916278E11 ; 0.0
153 ; 4.2475959646209955E7 ; 1.2125500005171165E9 ; 6.652731616906944E9 ; 1.7511149336631454E11 ; 0.0
154 ; 4.243691840904196E7 ; 1.2126083791919825E9 ; 6.695207576553154E9 ; 1.7632404336683167E11 ; 0.0
155 ; 4.2401991119936265E7 ; 1.2126666086730285E9 ; 6.737644494962196E9 ; 1.7753665174602365E11 ; 0.0
156 ; 4.2371163385182865E7 ; 1.2127246869468918E9 ; 6.780046486082132E9 ; 1.787493183546967E11 ; 0.0
157 ; 4.2334985684132755E7 ; 1.2127826120245523E9 ; 6.822417649467316E9 ; 1.799620430416436E11 ; 0.0
158 ; 4.229110510061228E7 ; 1.2128403819407482E9 ; 6.864752635151448E9 ; 1.8117482565366815E11 ; 0.0
159 ; 4.226497549453156E7 ; 1.2128979947534158E9 ; 6.907043740252061E9 ; 1.823876660356089E11 ; 0.0
160 ; 4.2223779427088305E7 ; 1.2129554485431466E9 ; 6.9493087157465925E9 ; 1.836005640303623E11 ; 0.0
161 ; 4.218994886105461E7 ; 1.213012741412667E9 ; 6.991532495173681E9 ; 1.8481351947890546E11 ; 0.0
162 ; 4.21583457606516E7 ; 1.2130698714863305E9 ; 7.033722444034736E9 ; 1.860265322203181E11 ; 0.0
163 ; 4.211690751675024E7 ; 1.2131268369096327E9 ; 7.075880789795387E9 ; 1.8723960209180444E11 ; 0.0
164 ; 4.2080590790008344E7 ; 1.2131836358487418E9 ; 7.117997697312138E9 ; 1.8845272892871408E11 ; 0.0
165 ; 4.204298399261664E7 ; 1.213240266490043E9 ; 7.160078288102146E9 ; 1.8966591256456284E11 ; 0.0
166 ; 4.20063167942877E7 ; 1.2132967270397017E9 ; 7.202121272094763E9 ; 1.908791528310529E11 ; 0.0
167 ; 4.196748020592087E7 ; 1.2133530157232404E9 ; 7.2441275888890505E9 ; 1.920924495580926E11 ; 0.0
168 ; 4.1936106834974565E7 ; 1.2134091307851293E9 ; 7.286095069094972E9 ; 1.9330580257381583E11 ; 0.0
169 ; 4.1895164841202885E7 ; 1.2134650704883919E9 ; 7.328031175929946E9 ; 1.9451921170460095E11 ; 0.0
170 ; 4.185429084919992E7 ; 1.2135208331142256E9 ; 7.369926340771149E9 ; 1.9573267677508936E11 ; 0.0
171 ; 4.1815631077265345E7 ; 1.2135764169616303E9 ; 7.411780631620349E9 ; 1.9694619760820358E11 ; 0.0
172 ; 4.178459888173554E7 ; 1.213631820347056E9 ; 7.453596262697615E9 ; 1.9815977402516522E11 ; 0.0
173 ; 4.1740477441155665E7 ; 1.213687041604056E9 ; 7.49538086157935E9 ; 1.9937340584551227E11 ; 0.0
174 ; 4.172171935088024E7 ; 1.2137420790829568E9 ; 7.537121339020506E9 ; 2.0058709288711633E11 ; 0.0
175 ; 4.170182643642972E7 ; 1.2137969311505373E9 ; 7.578843058371387E9 ; 2.0180083496619928E11 ; 0.0
176 ; 4.167530770101376E7 ; 1.2138515961897163E9 ; 7.6205448848078165E9 ; 2.0301463189734982E11 ; 0.0
177 ; 4.165126351032517E7 ; 1.2139060725992556E9 ; 7.66222019250883E9 ; 2.0422848349353955E11 ; 0.0
178 ; 4.16273954774001E7 ; 1.2139603587934668E9 ; 7.7038714560191555E9 ; 2.054423895661388E11 ; 0.0
179 ; 4.160226669512714E7 ; 1.2140144532019346E9 ; 7.745498851496555E9 ; 2.0665634992493225E11 ; 0.0
180 ; 4.1577084609683454E7 ; 1.2140683542692428E9 ; 7.787101118191683E9 ; 2.078703643781342E11 ; 0.0
181 ; 4.155912642187262E7 ; 1.2141220604547145E9 ; 7.828678202801366E9 ; 2.0908443273240344E11 ; 0.0
182 ; 4.152872683900729E7 ; 1.214175570232156E9 ; 7.870237329223239E9 ; 2.1029855479285815E11 ; 0.0
183 ; 4.151297842051469E7 ; 1.2142288820896156E9 ; 7.911766056062246E9 ; 2.115127303630903E11 ; 0.0
184 ; 4.1485503387607515E7 ; 1.214281994529142E9 ; 7.953279034482761E9 ; 2.1272695924517993E11 ; 0.0
185 ; 4.146346023799597E7 ; 1.2143349060665593E9 ; 7.994764537870369E9 ; 2.1394124123970908E11 ; 0.0
186 ; 4.143579242183155E7 ; 1.2143876152312422E9 ; 8.036227998108365E9 ; 2.1515557614577563E11 ; 0.0
187 ; 4.142556778254378E7 ; 1.2144401205659034E9 ; 8.077663790530196E9 ; 2.1636996376100687E11 ; 0.0
188 ; 4.1397736247059286E7 ; 1.2144924206263843E9 ; 8.11908935831274E9 ; 2.1758440388157278E11 ; 0.0
189 ; 4.137348365939753E7 ; 1.2145445139814553E9 ; 8.160487094559799E9 ; 2.1879889630219916E11 ; 0.0
190 ; 4.135381614005854E7 ; 1.2145963992126212E9 ; 8.201860578219196E9 ; 2.200134408161806E11 ; 0.0
191 ; 4.133225714691665E7 ; 1.2146480749139333E9 ; 8.243214394359255E9 ; 2.2122803721539322E11 ; 0.0
192 ; 4.1304167312573016E7 ; 1.2146995396918063E9 ; 8.284546651506171E9 ; 2.2244268529030716E11 ; 0.0
193 ; 4.12832080625864E7 ; 1.2147507921648438E9 ; 8.325850818818745E9 ; 2.2365738482999896E11 ; 0.0
194 ; 4.126644324831252E7 ; 1.2148018309636662E9 ; 8.367134026881331E9 ; 2.2487213562216382E11 ; 0.0
195 ; 4.123201013217589E7 ; 1.2148526547307467E9 ; 8.408400470129644E9 ; 2.2608693745312747E11 ; 0.0
196 ; 4.121329939811725E7 ; 1.2149032621202517E9 ; 8.44963248026182E9 ; 2.2730179010785822E11 ; 0.0
