CSV File for the Network on Day 1
1 - Minute m 
2 - Power Consumed at minute m 
3 - Power Produced at minute m 
4 - Energy Consumed since the beginning of the day 
5 - Energy Produced since the beginning of the day 
6 - Energy Lost since the beginning of the day 
 
0 ; 3.8462970505795084E7 ; 6.33374978751219E8 ; 0.0 ; 0.0 ; 0.0
1 ; 3.850331068089146E7 ; 6.342824704106978E8 ; 3.8462970505795084E7 ; 6.33374978751219E8 ; 0.0
2 ; 3.855174229129593E7 ; 6.370436291196637E8 ; 7.696628118668655E7 ; 1.2676574491619167E9 ; 0.0
3 ; 3.8598891520083286E7 ; 6.416584945512049E8 ; 1.1551802347798248E8 ; 1.9047010782815804E9 ; 0.0
4 ; 3.8657965470955834E7 ; 6.481271028860512E8 ; 1.5411691499806577E8 ; 2.5463595728327856E9 ; 0.0
5 ; 3.872340988718139E7 ; 6.564494864118361E8 ; 1.9277488046902162E8 ; 3.194486675718837E9 ; 0.0
6 ; 3.8804653072062254E7 ; 6.666256731505476E8 ; 2.3149829035620302E8 ; 3.850936162130673E9 ; 0.0
7 ; 3.8941468340120636E7 ; 6.786556865236608E8 ; 2.703029434282653E8 ; 4.51756183528122E9 ; 0.0
8 ; 3.912920528688939E7 ; 6.925395450639521E8 ; 3.092444117683859E8 ; 5.196217521804881E9 ; 0.0
9 ; 3.94129365677118E7 ; 7.082772621820785E8 ; 3.4837361705527526E8 ; 5.888757066868834E9 ; 0.0
10 ; 3.984443089243047E7 ; 7.25868845994679E8 ; 3.8778655362298703E8 ; 6.597034329050912E9 ; 0.0
11 ; 4.05310027021169E7 ; 7.453142992191157E8 ; 4.276309845154175E8 ; 7.322903175045591E9 ; 0.0
12 ; 4.163965734009135E7 ; 7.666136191380262E8 ; 4.681619872175344E8 ; 8.068217474264708E9 ; 0.0
13 ; 4.270244237424516E7 ; 7.897667976347718E8 ; 5.098016445576258E8 ; 8.834831093402733E9 ; 0.0
14 ; 4.2829477412393585E7 ; 8.14773821298696E8 ; 5.525040869318709E8 ; 9.624597891037504E9 ; 0.0
15 ; 4.2873952562212266E7 ; 8.416346715970212E8 ; 5.953335643442645E8 ; 1.04393717123362E10 ; 0.0
16 ; 4.292941286956316E7 ; 8.703493251082734E8 ; 6.382075169064767E8 ; 1.1281006383933222E10 ; 0.0
17 ; 4.297457759720871E7 ; 9.009177538104643E8 ; 6.811369297760398E8 ; 1.2151355709041494E10 ; 0.0
18 ; 4.3026437225441724E7 ; 9.3333992541596E8 ; 7.241115073732486E8 ; 1.305227346285196E10 ; 0.0
19 ; 4.3075374673717596E7 ; 9.676158037440311E8 ; 7.671379445986903E8 ; 1.398561338826792E10 ; 0.0
20 ; 4.312764729162754E7 ; 1.0037453491215892E9 ; 8.102133192724079E8 ; 1.4953229192011951E10 ; 0.0
21 ; 4.317906468064481E7 ; 1.0417285188025076E9 ; 8.533409665640354E8 ; 1.5956974541133541E10 ; 0.0
22 ; 4.3224567377888136E7 ; 1.0815652673962078E9 ; 8.965200312446802E8 ; 1.6998703059936049E10 ; 0.0
23 ; 4.327735718716349E7 ; 1.123255547296784E9 ; 9.397445986225682E8 ; 1.8080268327332256E10 ; 0.0
24 ; 4.33245480213042E7 ; 1.166799309104785E9 ; 9.830219558097317E8 ; 1.920352387462904E10 ; 0.0
25 ; 4.337874200488202E7 ; 1.2043247474239202E9 ; 1.026346503831036E9 ; 2.0370323183733826E10 ; 0.0
26 ; 4.3425381951314084E7 ; 1.204353097470147E9 ; 1.069725245835918E9 ; 2.1574647931157745E10 ; 0.0
27 ; 4.3477319490414806E7 ; 1.2043829225844026E9 ; 1.113150627787232E9 ; 2.277900102862789E10 ; 0.0
28 ; 4.351983487211753E7 ; 1.204414170048791E9 ; 1.1566279472776468E9 ; 2.3983383951212296E10 ; 0.0
29 ; 4.357083105499117E7 ; 1.2044467871516094E9 ; 1.2001477821497643E9 ; 2.5187798121261086E10 ; 0.0
30 ; 4.362312461492478E7 ; 1.2044807214616623E9 ; 1.2437186132047555E9 ; 2.6392244908412697E10 ; 0.0
31 ; 4.366246963780586E7 ; 1.2045159210709753E9 ; 1.2873417378196802E9 ; 2.759672562987436E10 ; 0.0
32 ; 4.371048228670821E7 ; 1.2045523348063073E9 ; 1.3310042074574862E9 ; 2.8801241550945335E10 ; 0.0
33 ; 4.375212851287779E7 ; 1.2045899124104557E9 ; 1.3747146897441943E9 ; 3.0005793885751644E10 ; 0.0
34 ; 4.379235687053132E7 ; 1.2046286046948347E9 ; 1.418466818257072E9 ; 3.12103837981621E10 ; 0.0
35 ; 4.3833085761269584E7 ; 1.2046683636651502E9 ; 1.4622591751276033E9 ; 3.2415012402856937E10 ; 0.0
36 ; 4.387521691010807E7 ; 1.2047091426222293E9 ; 1.5060922608888729E9 ; 3.3619680766522087E10 ; 0.0
37 ; 4.3913019406236865E7 ; 1.2047508962402112E9 ; 1.549967477798981E9 ; 3.482438990914432E10 ; 0.0
38 ; 4.394468677636537E7 ; 1.204793580624345E9 ; 1.5938804972052178E9 ; 3.602914080538453E10 ; 0.0
39 ; 4.398858440434916E7 ; 1.2048371533506474E9 ; 1.637825183981583E9 ; 3.723393438600887E10 ; 0.0
40 ; 4.4016333257500574E7 ; 1.2048815734895997E9 ; 1.6818137683859322E9 ; 3.843877153935952E10 ; 0.0
41 ; 4.405045010901654E7 ; 1.2049268016159656E9 ; 1.7258301016434329E9 ; 3.964365311284912E10 ; 0.0
42 ; 4.4077170892692074E7 ; 1.2049727998066788E9 ; 1.7698805517524495E9 ; 4.084857991446509E10 ; 0.0
43 ; 4.4112059899364725E7 ; 1.2050195316286137E9 ; 1.8139577226451416E9 ; 4.205355271427177E10 ; 0.0
44 ; 4.413404572550182E7 ; 1.2050669621178806E9 ; 1.8580697825445063E9 ; 4.325857224590038E10 ; 0.0
45 ; 4.415631648654971E7 ; 1.2051150577521389E9 ; 1.902203828270008E9 ; 4.4463639208018265E10 ; 0.0
46 ; 4.4184767701304846E7 ; 1.2051637864172583E9 ; 1.9463601447565577E9 ; 4.56687542657704E10 ; 0.0
47 ; 4.420249999979829E7 ; 1.2052131173695095E9 ; 1.9905449124578626E9 ; 4.687391805218766E10 ; 0.0
48 ; 4.421722992716719E7 ; 1.2052630211943154E9 ; 2.034747412457661E9 ; 4.807913116955717E10 ; 0.0
49 ; 4.4237149569685124E7 ; 1.205313469762465E9 ; 2.078964642384828E9 ; 4.928439419075148E10 ; 0.0
50 ; 4.425213538357684E7 ; 1.2053644361845632E9 ; 2.1232017919545133E9 ; 5.048970766051395E10 ; 0.0
51 ; 4.425755682490853E7 ; 1.2054158947643802E9 ; 2.16745392733809E9 ; 5.169507209669851E10 ; 0.0
52 ; 4.4278829845038585E7 ; 1.20546782095166E9 ; 2.2117114841629987E9 ; 5.290048799146289E10 ; 0.0
53 ; 4.429059922525106E7 ; 1.2055201912948575E9 ; 2.255990314008037E9 ; 5.410595581241455E10 ; 0.0
54 ; 4.430205958947131E7 ; 1.2055729833941936E9 ; 2.3002809132332883E9 ; 5.531147600370941E10 ; 0.0
55 ; 4.4310979061140954E7 ; 1.205626175855347E9 ; 2.3445829728227596E9 ; 5.651704898710361E10 ; 0.0
56 ; 4.432740644266756E7 ; 1.2056797482440367E9 ; 2.3888939518839006E9 ; 5.7722675162958954E10 ; 0.0
57 ; 4.433773979913642E7 ; 1.2057336810417027E9 ; 2.433221358326568E9 ; 5.892835491120299E10 ; 0.0
58 ; 4.4343179730988234E7 ; 1.2057879556024399E9 ; 2.477559098125705E9 ; 6.013408859224469E10 ; 0.0
59 ; 4.435254578246631E7 ; 1.2058425541113005E9 ; 2.521902277856693E9 ; 6.133987654784713E10 ; 0.0
60 ; 4.436519024269205E7 ; 1.2058974595440564E9 ; 2.566254823639159E9 ; 6.254571910195843E10 ; 0.0
61 ; 4.437376648845393E7 ; 1.2059526556284697E9 ; 2.610620013881851E9 ; 6.375161656150249E10 ; 0.0
62 ; 4.4380771581137896E7 ; 1.2060081268071136E9 ; 2.654993780370305E9 ; 6.495756921713096E10 ; 0.0
63 ; 4.439182737930342E7 ; 1.2060638582017472E9 ; 2.6993745519514427E9 ; 6.616357734393807E10 ; 0.0
64 ; 4.439825493079129E7 ; 1.2061198355792518E9 ; 2.743766379330746E9 ; 6.736964120213982E10 ; 0.0
65 ; 4.440271038297275E7 ; 1.206176045319104E9 ; 2.7881646342615376E9 ; 6.857576103771907E10 ; 0.0
66 ; 4.441565651132874E7 ; 1.2062324743823695E9 ; 2.8325673446445103E9 ; 6.978193708303818E10 ; 0.0
67 ; 4.441327789029538E7 ; 1.2062891102821746E9 ; 2.876983001155839E9 ; 7.098816955742055E10 ; 0.0
68 ; 4.442062923619382E7 ; 1.2063459410556188E9 ; 2.9213962790461345E9 ; 7.219445866770273E10 ; 0.0
69 ; 4.443513912004993E7 ; 1.2064029552370858E9 ; 2.965816908282328E9 ; 7.340080460875835E10 ; 0.0
70 ; 4.443430993359289E7 ; 1.206460141832901E9 ; 3.010252047402378E9 ; 7.460720756399544E10 ; 0.0
71 ; 4.443938596407608E7 ; 1.2065174902972836E9 ; 3.054686357335971E9 ; 7.581366770582834E10 ; 0.0
72 ; 4.44404388390206E7 ; 1.206574990509545E9 ; 3.099125743300047E9 ; 7.702018519612563E10 ; 0.0
73 ; 4.445044769519343E7 ; 1.206632632752477E9 ; 3.1435661821390676E9 ; 7.822676018663518E10 ; 0.0
74 ; 4.4457327578411356E7 ; 1.2066904076918778E9 ; 3.188016629834261E9 ; 7.943339281938765E10 ; 0.0
75 ; 4.445025397303378E7 ; 1.206748306357164E9 ; 3.2324739574126725E9 ; 8.064008322707953E10 ; 0.0
76 ; 4.445816550291405E7 ; 1.206806320123014E9 ; 3.2769242113857064E9 ; 8.184683153343669E10 ; 0.0
77 ; 4.446077668027181E7 ; 1.2068644406919959E9 ; 3.3213823768886204E9 ; 8.305363785355971E10 ; 0.0
78 ; 4.444897831201367E7 ; 1.2069226600781274E9 ; 3.365843153568892E9 ; 8.426050229425171E10 ; 0.0
79 ; 4.443789673026455E7 ; 1.2069809705913205E9 ; 3.4102921318809056E9 ; 8.546742495432983E10 ; 0.0
80 ; 4.441874842702022E7 ; 1.2070393648226671E9 ; 3.4547300286111703E9 ; 8.667440592492116E10 ; 0.0
81 ; 4.4405693809723236E7 ; 1.2070978356305182E9 ; 3.4991487770381904E9 ; 8.788144528974382E10 ; 0.0
82 ; 4.439576778297846E7 ; 1.2071563761273143E9 ; 3.5435544708479137E9 ; 8.908854312537434E10 ; 0.0
83 ; 4.43848189339532E7 ; 1.207214979667131E9 ; 3.5879502386308923E9 ; 9.029569950150166E10 ; 0.0
84 ; 4.437468866994208E7 ; 1.2072736398338935E9 ; 3.6323350575648456E9 ; 9.15029144811688E10 ; 0.0
85 ; 4.435225310086827E7 ; 1.2073323504302304E9 ; 3.6767097462347875E9 ; 9.271018812100269E10 ; 0.0
86 ; 4.4345752838612795E7 ; 1.2073911054669247E9 ; 3.7210619993356557E9 ; 9.391752047143292E10 ; 0.0
87 ; 4.4329851678695954E7 ; 1.207449899152937E9 ; 3.7654077521742687E9 ; 9.512491157689984E10 ; 0.0
88 ; 4.4317979434759766E7 ; 1.2075087258859577E9 ; 3.809737603852965E9 ; 9.633236147605278E10 ; 0.0
89 ; 4.429944542148374E7 ; 1.2075675802434735E9 ; 3.8540555832877245E9 ; 9.753987020193874E10 ; 0.0
90 ; 4.4284932356504366E7 ; 1.2076264569743032E9 ; 3.898355028709208E9 ; 9.87474377821822E10 ; 0.0
91 ; 4.427176416646534E7 ; 1.2076853509905884E9 ; 3.9426399610657125E9 ; 9.995506423915651E10 ; 0.0
92 ; 4.425284398647004E7 ; 1.2077442573602095E9 ; 3.9869117252321777E9 ; 1.011627495901471E11 ; 0.0
93 ; 4.42335367446442E7 ; 1.207803171299601E9 ; 4.031164569218648E9 ; 1.0237049384750731E11 ; 0.0
94 ; 4.421373791014993E7 ; 1.2078620881669464E9 ; 4.075398105963292E9 ; 1.0357829701880692E11 ; 0.0
95 ; 4.419572810024546E7 ; 1.2079210034557304E9 ; 4.119611843873442E9 ; 1.0478615910697386E11 ; 0.0
96 ; 4.417094003393695E7 ; 1.207979912788629E9 ; 4.1638075719736876E9 ; 1.059940801104296E11 ; 0.0
97 ; 4.4159323204962134E7 ; 1.2080388119117165E9 ; 4.2079785120076246E9 ; 1.0720206002321823E11 ; 0.0
98 ; 4.414047052635517E7 ; 1.2080976966889732E9 ; 4.252137835212587E9 ; 1.0841009883512994E11 ; 0.0
99 ; 4.412350415178215E7 ; 1.2081565630970783E9 ; 4.296278305738942E9 ; 1.0961819653181892E11 ; 0.0
100 ; 4.410560951930365E7 ; 1.2082154072204676E9 ; 4.340401809890724E9 ; 1.10826353094916E11 ; 0.0
101 ; 4.4081482520204626E7 ; 1.2082742252466471E9 ; 4.3845074194100275E9 ; 1.1203456850213647E11 ; 0.0
102 ; 4.405762367958122E7 ; 1.2083330134617434E9 ; 4.428588901930232E9 ; 1.1324284272738312E11 ; 0.0
103 ; 4.4032679375469774E7 ; 1.2083917682462795E9 ; 4.472646525609814E9 ; 1.1445117574084486E11 ; 0.0
104 ; 4.401643693803174E7 ; 1.2084504860711648E9 ; 4.516679204985284E9 ; 1.1565956750909114E11 ; 0.0
105 ; 4.399091434402185E7 ; 1.2085091634938858E9 ; 4.560695641923316E9 ; 1.1686801799516231E11 ; 0.0
106 ; 4.397287906790008E7 ; 1.2085677971548867E9 ; 4.604686556267338E9 ; 1.1807652715865619E11 ; 0.0
107 ; 4.3949942330832824E7 ; 1.2086263837741294E9 ; 4.6486594353352375E9 ; 1.1928509495581108E11 ; 0.0
108 ; 4.39269068407391E7 ; 1.2086849201478262E9 ; 4.69260937766607E9 ; 1.204937213395852E11 ; 0.0
109 ; 4.390462340471129E7 ; 1.2087434031453292E9 ; 4.736536284506809E9 ; 1.2170240625973303E11 ; 0.0
110 ; 4.3871587442845434E7 ; 1.2088018297061749E9 ; 4.780440907911521E9 ; 1.2291114966287836E11 ; 0.0
111 ; 4.385146199337086E7 ; 1.2088601968372717E9 ; 4.824312495354366E9 ; 1.2411995149258453E11 ; 0.0
112 ; 4.3821067180307396E7 ; 1.208918501610223E9 ; 4.868163957347737E9 ; 1.253288116894218E11 ; 0.0
113 ; 4.3803219121011436E7 ; 1.2089767411587803E9 ; 4.911985024528045E9 ; 1.2653773019103203E11 ; 0.0
114 ; 4.377785056808537E7 ; 1.2090349126764166E9 ; 4.955788243649056E9 ; 1.2774670693219081E11 ; 0.0
115 ; 4.375079340903459E7 ; 1.2090930134140184E9 ; 4.999566094217142E9 ; 1.2895574184486723E11 ; 0.0
116 ; 4.372108725572649E7 ; 1.2091510406776838E9 ; 5.043316887626177E9 ; 1.3016483485828125E11 ; 0.0
117 ; 4.3691258805759974E7 ; 1.2092089918266263E9 ; 5.087037974881904E9 ; 1.3137398589895894E11 ; 0.0
118 ; 4.366289624230903E7 ; 1.2092668642711763E9 ; 5.130729233687664E9 ; 1.3258319489078557E11 ; 0.0
119 ; 4.364337048657904E7 ; 1.2093246554708767E9 ; 5.174392129929973E9 ; 1.3379246175505675E11 ; 0.0
120 ; 4.361257313864469E7 ; 1.2093823629326653E9 ; 5.218035500416552E9 ; 1.3500178641052762E11 ; 0.0
121 ; 4.357861953014842E7 ; 1.209439984209143E9 ; 5.261648073555196E9 ; 1.3621116877346028E11 ; 0.0
122 ; 4.3549076247850105E7 ; 1.209497516896919E9 ; 5.305226693085344E9 ; 1.3742060875766942E11 ; 0.0
123 ; 4.352082532657941E7 ; 1.2095549586350346E9 ; 5.348775769333195E9 ; 1.3863010627456635E11 ; 0.0
124 ; 4.348863268031926E7 ; 1.2096123071034558E9 ; 5.392296594659774E9 ; 1.398396612332014E11 ; 0.0
125 ; 4.345648525727246E7 ; 1.209669560021637E9 ; 5.435785227340093E9 ; 1.4104927354030484E11 ; 0.0
126 ; 4.343247506658843E7 ; 1.2097267151471446E9 ; 5.479241712597365E9 ; 1.4225894310032648E11 ; 0.0
127 ; 4.339738004703633E7 ; 1.209783770274349E9 ; 5.522674187663954E9 ; 1.4346866981547363E11 ; 0.0
128 ; 4.3369614458494455E7 ; 1.2098407232331676E9 ; 5.56607156771099E9 ; 1.44678453585748E11 ; 0.0
129 ; 4.333007895102583E7 ; 1.209897571887868E9 ; 5.609441182169484E9 ; 1.4588829430898114E11 ; 0.0
130 ; 4.329121683435158E7 ; 1.209954314135923E9 ; 5.65277126112051E9 ; 1.4709819188086902E11 ; 0.0
131 ; 4.324615490862247E7 ; 1.2100109479069142E9 ; 5.696062477954862E9 ; 1.4830814619500494E11 ; 0.0
132 ; 4.319763821725629E7 ; 1.2100674711614864E9 ; 5.739308632863484E9 ; 1.4951815714291187E11 ; 0.0
133 ; 4.3157627023051456E7 ; 1.2101238818903432E9 ; 5.782506271080741E9 ; 1.5072822461407336E11 ; 0.0
134 ; 4.311262967760196E7 ; 1.2101801781132903E9 ; 5.825663898103792E9 ; 1.519383484959637E11 ; 0.0
135 ; 4.306257080444582E7 ; 1.2102363578783162E9 ; 5.868776527781394E9 ; 1.53148528674077E11 ; 0.0
136 ; 4.30153793095246E7 ; 1.2102924192607152E9 ; 5.91183909858584E9 ; 1.5435876503195532E11 ; 0.0
137 ; 4.295942727110233E7 ; 1.2103483603622453E9 ; 5.954854477895365E9 ; 1.5556905745121603E11 ; 0.0
138 ; 4.291203732984476E7 ; 1.2104041793103223E9 ; 5.997813905166467E9 ; 1.5677940581157828E11 ; 0.0
139 ; 4.2862670999356315E7 ; 1.2104598742572496E9 ; 6.040725942496311E9 ; 1.579898099908886E11 ; 0.0
140 ; 4.281308568532441E7 ; 1.2105154433794777E9 ; 6.083588613495667E9 ; 1.5920026986514587E11 ; 0.0
141 ; 4.275948182019739E7 ; 1.210570884876896E9 ; 6.126401699180992E9 ; 1.6041078530852536E11 ; 0.0
142 ; 4.2710687728686616E7 ; 1.210626196972154E9 ; 6.169161181001189E9 ; 1.6162135619340225E11 ; 0.0
143 ; 4.2662933392734446E7 ; 1.21068137791001E9 ; 6.211871868729876E9 ; 1.6283198239037442E11 ; 0.0
144 ; 4.261624005483341E7 ; 1.2107364259567075E9 ; 6.25453480212261E9 ; 1.6404266376828442E11 ; 0.0
145 ; 4.257793876807464E7 ; 1.2107913393993745E9 ; 6.2971510421774435E9 ; 1.6525340019424112E11 ; 0.0
146 ; 4.2540302152528755E7 ; 1.210846116545452E9 ; 6.3397289809455185E9 ; 1.664641915336405E11 ; 0.0
147 ; 4.2506398665361635E7 ; 1.2109007557221415E9 ; 6.382269283098047E9 ; 1.6767503765018594E11 ; 0.0
148 ; 4.246775673138145E7 ; 1.2109552552758758E9 ; 6.424775681763409E9 ; 1.6888593840590808E11 ; 0.0
149 ; 4.243890727259602E7 ; 1.2110096135718122E9 ; 6.46724343849479E9 ; 1.7009689366118396E11 ; 0.0
150 ; 4.239536971036819E7 ; 1.2110638289933453E9 ; 6.509682345767386E9 ; 1.7130790327475577E11 ; 0.0
151 ; 4.236346519515206E7 ; 1.2111178999416394E9 ; 6.552077715477755E9 ; 1.725189671037491E11 ; 0.0
152 ; 4.232654952552571E7 ; 1.2111718248351789E9 ; 6.594441180672907E9 ; 1.7373008500369077E11 ; 0.0
153 ; 4.228829875763885E7 ; 1.2112256021093361E9 ; 6.636767730198433E9 ; 1.7494125682852594E11 ; 0.0
154 ; 4.225761434122424E7 ; 1.211279230215959E9 ; 6.679056028956072E9 ; 1.7615248243063528E11 ; 0.0
155 ; 4.221910970721865E7 ; 1.211332707622972E9 ; 6.721313643297297E9 ; 1.7736376166085126E11 ; 0.0
156 ; 4.2182998191259906E7 ; 1.2113860328139913E9 ; 6.763532753004515E9 ; 1.7857509436847424E11 ; 0.0
157 ; 4.214543506011302E7 ; 1.2114392042879605E9 ; 6.805715751195775E9 ; 1.7978648040128824E11 ; 0.0
158 ; 4.211026484863558E7 ; 1.2114922205587955E9 ; 6.847861186255888E9 ; 1.809979196055762E11 ; 0.0
159 ; 4.206508643211858E7 ; 1.2115450801550438E9 ; 6.889971451104524E9 ; 1.82209411826135E11 ; 0.0
160 ; 4.2036937968108684E7 ; 1.2115977816195598E9 ; 6.932036537536642E9 ; 1.8342095690629004E11 ; 0.0
161 ; 4.199345861851995E7 ; 1.2116503235091887E9 ; 6.974073475504751E9 ; 1.846325546879096E11 ; 0.0
162 ; 4.195736005392283E7 ; 1.2117027043944652E9 ; 7.016066934123271E9 ; 1.858442050114188E11 ; 0.0
163 ; 4.1917676408562765E7 ; 1.2117549228593233E9 ; 7.058024294177194E9 ; 1.8705590771581326E11 ; 0.0
164 ; 4.188081439663445E7 ; 1.2118069775008147E9 ; 7.099941970585756E9 ; 1.8826766263867258E11 ; 0.0
165 ; 4.184096029301461E7 ; 1.2118588669288423E9 ; 7.14182278498239E9 ; 1.894794696161734E11 ; 0.0
166 ; 4.180371140700994E7 ; 1.2119105897658992E9 ; 7.183663745275405E9 ; 1.9069132848310223E11 ; 0.0
167 ; 4.1762705530578166E7 ; 1.2119621446468203E9 ; 7.225467456682415E9 ; 1.9190323907286813E11 ; 0.0
168 ; 4.1726165165822744E7 ; 1.2120135302185423E9 ; 7.267230162212994E9 ; 1.9311520121751495E11 ; 0.0
169 ; 4.169626821916545E7 ; 1.2120647451398726E9 ; 7.308956327378817E9 ; 1.943272147477335E11 ; 0.0
170 ; 4.164878864457101E7 ; 1.2121157880812676E9 ; 7.350652595597982E9 ; 1.9553927949287335E11 ; 0.0
171 ; 4.16064397954555E7 ; 1.2121666577246175E9 ; 7.392301384242554E9 ; 1.9675139528095462E11 ; 0.0
172 ; 4.156676142267905E7 ; 1.2122173527630408E9 ; 7.43390782403801E9 ; 1.9796356193867923E11 ; 0.0
173 ; 4.15371881852292E7 ; 1.2122678719006865E9 ; 7.475474585460689E9 ; 1.9917577929144226E11 ; 0.0
174 ; 4.150584589238301E7 ; 1.2123182138525412E9 ; 7.517011773645918E9 ; 2.0038804716334296E11 ; 0.0
175 ; 4.148613612012741E7 ; 1.2123683773442461E9 ; 7.5585176195383005E9 ; 2.016003653771955E11 ; 0.0
176 ; 4.145451333715679E7 ; 1.2124183611119194E9 ; 7.600003755658428E9 ; 2.0281273375453973E11 ; 0.0
177 ; 4.1434165630230375E7 ; 1.212468163901985E9 ; 7.641458268995585E9 ; 2.0402515211565164E11 ; 0.0
178 ; 4.141571022674732E7 ; 1.2125177844710078E9 ; 7.682892434625815E9 ; 2.0523762027955362E11 ; 0.0
179 ; 4.1386838099480554E7 ; 1.212567221585535E9 ; 7.724308144852563E9 ; 2.0645013806402463E11 ; 0.0
180 ; 4.1363199508403994E7 ; 1.2126164740219436E9 ; 7.765694982952044E9 ; 2.0766270528561017E11 ; 0.0
181 ; 4.1341664289703704E7 ; 1.212665540566292E9 ; 7.807058182460447E9 ; 2.088753217596321E11 ; 0.0
182 ; 4.131428981215732E7 ; 1.2127144200141792E9 ; 7.848399846750151E9 ; 2.100879873001984E11 ; 0.0
183 ; 4.1287914694555655E7 ; 1.2127631111706061E9 ; 7.889714136562308E9 ; 2.113007017202126E11 ; 0.0
184 ; 4.126558225542515E7 ; 1.2128116128498454E9 ; 7.931002051256864E9 ; 2.1251346483138318E11 ; 0.0
185 ; 4.1246758221190386E7 ; 1.2128599238753123E9 ; 7.972267633512289E9 ; 2.1372627644423303E11 ; 0.0
186 ; 4.122120672445817E7 ; 1.2129080430794442E9 ; 8.0135143917334795E9 ; 2.1493913636810834E11 ; 0.0
187 ; 4.119705555403816E7 ; 1.2129559693035798E9 ; 8.054735598457937E9 ; 2.1615204441118777E11 ; 0.0
188 ; 4.117094671657488E7 ; 1.2130037013978472E9 ; 8.095932654011975E9 ; 2.1736500038049136E11 ; 0.0
189 ; 4.114492684780305E7 ; 1.2130512382210517E9 ; 8.13710360072855E9 ; 2.1857800408188922E11 ; 0.0
190 ; 4.112049505815193E7 ; 1.2130985786405725E9 ; 8.178248527576353E9 ; 2.1979105532011026E11 ; 0.0
191 ; 4.110000756264187E7 ; 1.2131457215322585E9 ; 8.219369022634505E9 ; 2.2100415389875082E11 ; 0.0
192 ; 4.1074742781354114E7 ; 1.2131926657803295E9 ; 8.260469030197147E9 ; 2.2221729962028308E11 ; 0.0
193 ; 4.105277383849181E7 ; 1.2132394102772822E9 ; 8.301543772978501E9 ; 2.2343049228606342E11 ; 0.0
194 ; 4.102361669708444E7 ; 1.2132859539237986E9 ; 8.342596546816993E9 ; 2.246437316963407E11 ; 0.0
195 ; 4.100015649598789E7 ; 1.2133322956286554E9 ; 8.383620163514077E9 ; 2.258570176502645E11 ; 0.0
196 ; 4.097893358157857E7 ; 1.2133784343086417E9 ; 8.424620320010065E9 ; 2.2707034994589316E11 ; 0.0
