CSV File for the Network on Day 101
1 - Minute m 
2 - Power Consumed at minute m 
3 - Power Produced at minute m 
4 - Energy Consumed since the beginning of the day 
5 - Energy Produced since the beginning of the day 
6 - Energy Lost since the beginning of the day 
 
0 ; 3.877322167825518E7 ; 6.352338065659019E8 ; 0.0 ; 0.0 ; 0.0
1 ; 3.880457380816243E7 ; 6.361446963349569E8 ; 3.877322167825518E7 ; 6.352338065659019E8 ; 0.0
2 ; 3.8847320369949445E7 ; 6.38908972391039E8 ; 7.75777954864176E7 ; 1.2713785029008589E9 ; 0.0
3 ; 3.889933866564595E7 ; 6.435266504766729E8 ; 1.1642511585636705E8 ; 1.9102874752918978E9 ; 0.0
4 ; 3.895136853067689E7 ; 6.499977446924388E8 ; 1.55324454522013E8 ; 2.553814125768571E9 ; 0.0
5 ; 3.902735698967494E7 ; 6.583222674213994E8 ; 1.942758230526899E8 ; 3.20381187046101E9 ; 0.0
6 ; 3.9121793412323825E7 ; 6.685002292615019E8 ; 2.3330318004236484E8 ; 3.862134137882409E9 ; 0.0
7 ; 3.924838122002469E7 ; 6.805316389668152E8 ; 2.7242497345468867E8 ; 4.530634367143911E9 ; 0.0
8 ; 3.943744599745284E7 ; 6.944165033983485E8 ; 3.116733546747134E8 ; 5.211166006110726E9 ; 0.0
9 ; 3.971665756161393E7 ; 7.101548274851019E8 ; 3.511108006721662E8 ; 5.905582509509075E9 ; 0.0
10 ; 4.0155400196474336E7 ; 7.277466141958647E8 ; 3.9082745823378015E8 ; 6.615737336994177E9 ; 0.0
11 ; 4.084512565429196E7 ; 7.471918645221392E8 ; 4.3098285843025446E8 ; 7.343483951190042E9 ; 0.0
12 ; 4.194426010881331E7 ; 7.684905774724225E8 ; 4.7182798408454645E8 ; 8.090675815712181E9 ; 0.0
13 ; 4.301904687758823E7 ; 7.916427500779263E8 ; 5.1377224419335973E8 ; 8.859166393184603E9 ; 0.0
14 ; 4.3146960821051E7 ; 8.166483774096501E8 ; 5.56791291070948E8 ; 9.65080914326253E9 ; 0.0
15 ; 4.319059651333691E7 ; 8.435074526065843E8 ; 5.99938251891999E8 ; 1.046745752067218E10 ; 0.0
16 ; 4.324563341318759E7 ; 8.72219966914661E8 ; 6.431288484053359E8 ; 1.1310964973278765E10 ; 0.0
17 ; 4.329409846671106E7 ; 9.02785909735932E8 ; 6.863744818185235E8 ; 1.2183184940193426E10 ; 0.0
18 ; 4.334384397730581E7 ; 9.352052686873355E8 ; 7.296685802852346E8 ; 1.3085970849929358E10 ; 0.0
19 ; 4.3402064261380136E7 ; 9.694780296682904E8 ; 7.730124242625403E8 ; 1.4021176118616693E10 ; 0.0
20 ; 4.34485227567909E7 ; 1.005604176936272E9 ; 8.164144885239205E8 ; 1.4990654148284985E10 ; 0.0
21 ; 4.3502102338187814E7 ; 1.0435836931894418E9 ; 8.598630112807114E8 ; 1.5996258325221256E10 ; 0.0
22 ; 4.354997141623098E7 ; 1.0834165596553502E9 ; 9.033651136188992E8 ; 1.7039842018410698E10 ; 0.0
23 ; 4.360736086104866E7 ; 1.1251027561846972E9 ; 9.469150850351303E8 ; 1.8123258578066048E10 ; 0.0
24 ; 4.366230821501708E7 ; 1.1686422613491116E9 ; 9.90522445896179E8 ; 1.9248361334250744E10 ; 0.0
25 ; 4.371083472704143E7 ; 1.2061632979310327E9 ; 1.034184754111196E9 ; 2.0417003595599854E10 ; 0.0
26 ; 4.37633586763475E7 ; 1.206187129247837E9 ; 1.0778955888382375E9 ; 2.1623166893530888E10 ; 0.0
27 ; 4.381215383359652E7 ; 1.206212346405026E9 ; 1.121658947514585E9 ; 2.2829354022778725E10 ; 0.0
28 ; 4.385686258107841E7 ; 1.2062389238807104E9 ; 1.1654711013481815E9 ; 2.403556636918375E10 ; 0.0
29 ; 4.3910272769062825E7 ; 1.206266835388151E9 ; 1.2093279639292598E9 ; 2.524180529306446E10 ; 0.0
30 ; 4.396122213109601E7 ; 1.206296053977259E9 ; 1.2532382366983225E9 ; 2.644807212845261E10 ; 0.0
31 ; 4.400416671277478E7 ; 1.2063265521338105E9 ; 1.2971994588294187E9 ; 2.765436818242987E10 ; 0.0
32 ; 4.405468011164628E7 ; 1.2063583018757422E9 ; 1.3412036255421934E9 ; 2.8860694734563683E10 ; 0.0
33 ; 4.40991703660098E7 ; 1.2063912748459811E9 ; 1.3852583056538396E9 ; 3.0067053036439426E10 ; 0.0
34 ; 4.4140614868652105E7 ; 1.2064254424013464E9 ; 1.4293574760198493E9 ; 3.1273444311285408E10 ; 0.0
35 ; 4.41932023168658E7 ; 1.2064607756971426E9 ; 1.4734980908885014E9 ; 3.2479869753686756E10 ; 0.0
36 ; 4.422840925337277E7 ; 1.2064972457671487E9 ; 1.517691293205367E9 ; 3.36863305293839E10 ; 0.0
37 ; 4.426871102759209E7 ; 1.206534823598779E9 ; 1.5619197024587398E9 ; 3.489282777515105E10 ; 0.0
38 ; 4.430647846034498E7 ; 1.206573480203271E9 ; 1.606188413486332E9 ; 3.6099362598749825E10 ; 0.0
39 ; 4.434977831931946E7 ; 1.206613186680815E9 ; 1.650494891946677E9 ; 3.7305936078953094E10 ; 0.0
40 ; 4.437839232040651E7 ; 1.2066539142806025E9 ; 1.6948446702659965E9 ; 3.851254926563391E10 ; 0.0
41 ; 4.441562601441229E7 ; 1.2066956344558256E9 ; 1.739223062586403E9 ; 3.971920317991451E10 ; 0.0
42 ; 4.444681824690011E7 ; 1.206738318913705E9 ; 1.7836386886008153E9 ; 4.092589881437034E10 ; 0.0
43 ; 4.448091856690019E7 ; 1.206781939660664E9 ; 1.8280855068477154E9 ; 4.213263713328404E10 ; 0.0
44 ; 4.450791615233512E7 ; 1.2068264690427957E9 ; 1.8725664254146156E9 ; 4.333941907294471E10 ; 0.0
45 ; 4.453494081446334E7 ; 1.2068718797818122E9 ; 1.9170743415669508E9 ; 4.45462455419875E10 ; 0.0
46 ; 4.455782047800164E7 ; 1.206918145006667E9 ; 1.9616092823814142E9 ; 4.575311742176932E10 ; 0.0
47 ; 4.457636626451899E7 ; 1.206965238281072E9 ; 2.0061671028594158E9 ; 4.6960035566775986E10 ; 0.0
48 ; 4.460217052751447E7 ; 1.2070131336271424E9 ; 2.0507434691239347E9 ; 4.816700080505706E10 ; 0.0
49 ; 4.461452390290084E7 ; 1.2070618055454006E9 ; 2.0953456396514492E9 ; 4.9374013938684204E10 ; 0.0
50 ; 4.463949087032911E7 ; 1.2071112290313828E9 ; 2.1399601635543501E9 ; 5.058107574422961E10 ; 0.0
51 ; 4.465149869498215E7 ; 1.2071613795890937E9 ; 2.1845996544246793E9 ; 5.178818697326099E10 ; 0.0
52 ; 4.467442270546724E7 ; 1.207212233241543E9 ; 2.2292511531196613E9 ; 5.299534835285008E10 ; 0.0
53 ; 4.46829475520764E7 ; 1.2072637665386012E9 ; 2.2739255758251286E9 ; 5.420256058609163E10 ; 0.0
54 ; 4.470287240283668E7 ; 1.207315956562406E9 ; 2.318608523377205E9 ; 5.540982435263023E10 ; 0.0
55 ; 4.47130855924929E7 ; 1.2073687809305353E9 ; 2.3633113957800417E9 ; 5.661714030919264E10 ; 0.0
56 ; 4.472714179638785E7 ; 1.2074222177971601E9 ; 2.4080244813725348E9 ; 5.782450909012318E10 ; 0.0
57 ; 4.474517944448811E7 ; 1.2074762458523803E9 ; 2.4527516231689224E9 ; 5.9031931307920334E10 ; 0.0
58 ; 4.475632556396037E7 ; 1.2075308443199282E9 ; 2.4974968026134105E9 ; 6.023940755377271E10 ; 0.0
59 ; 4.47628766930691E7 ; 1.2075859929534278E9 ; 2.542253128177371E9 ; 6.144693839809264E10 ; 0.0
60 ; 4.477858892923598E7 ; 1.2076416720313654E9 ; 2.58701600487044E9 ; 6.2654524391046074E10 ; 0.0
61 ; 4.479341231015458E7 ; 1.2076978623509421E9 ; 2.631794593799676E9 ; 6.386216606307744E10 ; 0.0
62 ; 4.480571543960144E7 ; 1.2077545452209399E9 ; 2.6765880061098304E9 ; 6.506986392542838E10 ; 0.0
63 ; 4.48166591840965E7 ; 1.2078117024537458E9 ; 2.721393721549432E9 ; 6.627761847064932E10 ; 0.0
64 ; 4.4823318337891586E7 ; 1.2078693163566508E9 ; 2.766210380733528E9 ; 6.7485430173103065E10 ; 0.0
65 ; 4.483890316031391E7 ; 1.207927369722539E9 ; 2.8110336990714197E9 ; 6.869329948945972E10 ; 0.0
66 ; 4.484841828224291E7 ; 1.2079858458200722E9 ; 2.855872602231734E9 ; 6.990122685918225E10 ; 0.0
67 ; 4.484968303782799E7 ; 1.2080447283834584E9 ; 2.9007210205139766E9 ; 7.110921270500232E10 ; 0.0
68 ; 4.486272628454338E7 ; 1.208104001601897E9 ; 2.9455707035518045E9 ; 7.231725743338577E10 ; 0.0
69 ; 4.48685449889705E7 ; 1.208163650108768E9 ; 2.990433429836348E9 ; 7.352536143498767E10 ; 0.0
70 ; 4.487842231644902E7 ; 1.2082236589706426E9 ; 3.0353019748253183E9 ; 7.473352508509644E10 ; 0.0
71 ; 4.488602705151062E7 ; 1.2082840136761723E9 ; 3.0801803971417675E9 ; 7.594174874406708E10 ; 0.0
72 ; 4.4891993006535605E7 ; 1.2083447001249123E9 ; 3.1250664241932783E9 ; 7.715003275774326E10 ; 0.0
73 ; 4.490488442764914E7 ; 1.208405704616126E9 ; 3.169958417199814E9 ; 7.835837745786816E10 ; 0.0
74 ; 4.490465284412515E7 ; 1.2084670138376222E9 ; 3.214863301627463E9 ; 7.956678316248428E10 ; 0.0
75 ; 4.491628705142957E7 ; 1.2085286148546467E9 ; 3.259767954471588E9 ; 8.07752501763219E10 ; 0.0
76 ; 4.492550432626912E7 ; 1.2085904950988796E9 ; 3.304684241523018E9 ; 8.198377879117654E10 ; 0.0
77 ; 4.4922952536130846E7 ; 1.2086526423575528E9 ; 3.349609745849287E9 ; 8.319236928627542E10 ; 0.0
78 ; 4.491544779459128E7 ; 1.2087150447627192E9 ; 3.394532698385418E9 ; 8.440102192863298E10 ; 0.0
79 ; 4.4911810654935524E7 ; 1.208777690780693E9 ; 3.4394481461800094E9 ; 8.56097369733957E10 ; 0.0
80 ; 4.4902377351254106E7 ; 1.2088405692016776E9 ; 3.4843599568349447E9 ; 8.681851466417639E10 ; 0.0
81 ; 4.4896198636494726E7 ; 1.2089036691295986E9 ; 3.5292623341861987E9 ; 8.802735523337807E10 ; 0.0
82 ; 4.488296944714507E7 ; 1.2089669799721506E9 ; 3.5741585328226933E9 ; 8.923625890250766E10 ; 0.0
83 ; 4.487554064489787E7 ; 1.2090304914310703E9 ; 3.6190415022698383E9 ; 9.044522588247981E10 ; 0.0
84 ; 4.48655425582805E7 ; 1.2090941934926414E9 ; 3.6639170429147363E9 ; 9.165425637391089E10 ; 0.0
85 ; 4.485984828406979E7 ; 1.2091580764184394E9 ; 3.7087825854730167E9 ; 9.286335056740353E10 ; 0.0
86 ; 4.484740369955228E7 ; 1.2092221307363172E9 ; 3.7536424337570868E9 ; 9.407250864382198E10 ; 0.0
87 ; 4.4829259239290655E7 ; 1.2092863472316377E9 ; 3.798489837456639E9 ; 9.528173077455829E10 ; 0.0
88 ; 4.4826036485253215E7 ; 1.2093507169387507E9 ; 3.8433190966959295E9 ; 9.649101712178993E10 ; 0.0
89 ; 4.480988423377113E7 ; 1.2094152311327186E9 ; 3.888145133181183E9 ; 9.770036783872868E10 ; 0.0
90 ; 4.479739697177107E7 ; 1.209479881321285E9 ; 3.932955017414954E9 ; 9.89097830698614E10 ; 0.0
91 ; 4.478770532337382E7 ; 1.2095446592370908E9 ; 3.9777524143867254E9 ; 1.001192629511827E11 ; 0.0
92 ; 4.4777975243110254E7 ; 1.2096095568301272E9 ; 4.022540119710099E9 ; 1.0132880761041978E11 ; 0.0
93 ; 4.475573057291511E7 ; 1.2096745662604315E9 ; 4.0673180949532094E9 ; 1.0253841716724991E11 ; 0.0
94 ; 4.4745944596232995E7 ; 1.209739679891014E9 ; 4.1120738255261245E9 ; 1.0374809173351035E11 ; 0.0
95 ; 4.4735912066098236E7 ; 1.2098048902810183E9 ; 4.1568197701223574E9 ; 1.0495783141340137E11 ; 0.0
96 ; 4.472007411264381E7 ; 1.209870190179104E9 ; 4.2015556821884556E9 ; 1.0616763630368239E11 ; 0.0
97 ; 4.470824607961883E7 ; 1.209935572517056E9 ; 4.2462757563010993E9 ; 1.073775064938615E11 ; 0.0
98 ; 4.468677839114095E7 ; 1.2100010304036038E9 ; 4.290984002380718E9 ; 1.0858744206637856E11 ; 0.0
99 ; 4.467385324914111E7 ; 1.2100665571184573E9 ; 4.335670780771859E9 ; 1.0979744309678217E11 ; 0.0
100 ; 4.465659261160131E7 ; 1.2101321461065447E9 ; 4.380344634021E9 ; 1.1100750965390062E11 ; 0.0
101 ; 4.464290629885316E7 ; 1.210197790972451E9 ; 4.425001226632601E9 ; 1.1221764180000717E11 ; 0.0
102 ; 4.462673900254099E7 ; 1.2102634854750524E9 ; 4.469644132931454E9 ; 1.1342783959097963E11 ; 0.0
103 ; 4.4606116118220426E7 ; 1.2103292235223386E9 ; 4.514270871933994E9 ; 1.1463810307645468E11 ; 0.0
104 ; 4.458531558998203E7 ; 1.210394999166419E9 ; 4.558876988052215E9 ; 1.1584843229997702E11 ; 0.0
105 ; 4.457520885012566E7 ; 1.210460806598705E9 ; 4.603462303642197E9 ; 1.1705882729914343E11 ; 0.0
106 ; 4.454982499243887E7 ; 1.210526640145268E9 ; 4.648037512492322E9 ; 1.1826928810574214E11 ; 0.0
107 ; 4.453412045664754E7 ; 1.2105924942623587E9 ; 4.692587337484761E9 ; 1.194798147458874E11 ; 0.0
108 ; 4.452196044040906E7 ; 1.210658363532095E9 ; 4.737121457941409E9 ; 1.2069040724014977E11 ; 0.0
109 ; 4.449772474826258E7 ; 1.2107242426582975E9 ; 4.781643418381818E9 ; 1.2190106560368185E11 ; 0.0
110 ; 4.447779638506915E7 ; 1.210790126462483E9 ; 4.82614114313008E9 ; 1.2311178984634015E11 ; 0.0
111 ; 4.445465989856206E7 ; 1.2108560098799996E9 ; 4.870618939515149E9 ; 1.2432257997280263E11 ; 0.0
112 ; 4.4438818530897215E7 ; 1.2109218879563026E9 ; 4.915073599413712E9 ; 1.2553343598268263E11 ; 0.0
113 ; 4.4418590375195235E7 ; 1.2109877558433683E9 ; 4.959512417944609E9 ; 1.2674435787063893E11 ; 0.0
114 ; 4.439374018592343E7 ; 1.211053608796236E9 ; 5.003931008319804E9 ; 1.279553456264823E11 ; 0.0
115 ; 4.437242037370741E7 ; 1.211119442169677E9 ; 5.048324748505728E9 ; 1.2916639923527853E11 ; 0.0
116 ; 4.434908004112111E7 ; 1.2111852514149876E9 ; 5.092697168879436E9 ; 1.3037751867744821E11 ; 0.0
117 ; 4.432382014501412E7 ; 1.2112510320768955E9 ; 5.137046248920557E9 ; 1.315887039288632E11 ; 0.0
118 ; 4.430600224247697E7 ; 1.2113167797905827E9 ; 5.181370069065571E9 ; 1.327999549609401E11 ; 0.0
119 ; 4.42767260178822E7 ; 1.2113824902788146E9 ; 5.225676071308048E9 ; 1.3401127174073068E11 ; 0.0
120 ; 4.4259618531934574E7 ; 1.211448159349176E9 ; 5.269952797325931E9 ; 1.3522265423100949E11 ; 0.0
121 ; 4.4237577874497235E7 ; 1.2115137828914077E9 ; 5.314212415857865E9 ; 1.3643410239035867E11 ; 0.0
122 ; 4.420972274766861E7 ; 1.211579356874839E9 ; 5.358449993732363E9 ; 1.376456161732501E11 ; 0.0
123 ; 4.418542788223387E7 ; 1.2116448773459153E9 ; 5.402659716480031E9 ; 1.3885719553012494E11 ; 0.0
124 ; 4.416971777911156E7 ; 1.2117103404258163E9 ; 5.446845144362265E9 ; 1.4006884040747086E11 ; 0.0
125 ; 4.413186040690786E7 ; 1.2117757423081574E9 ; 5.4910148621413765E9 ; 1.4128055074789667E11 ; 0.0
126 ; 4.4106656665375344E7 ; 1.2118410792567809E9 ; 5.535146722548285E9 ; 1.4249232649020483E11 ; 0.0
127 ; 4.4084476340932876E7 ; 1.2119063476036215E9 ; 5.57925337921366E9 ; 1.437041675694616E11 ; 0.0
128 ; 4.405332367137585E7 ; 1.2119715437466507E9 ; 5.623337855554593E9 ; 1.4491607391706522E11 ; 0.0
129 ; 4.403144212901853E7 ; 1.2120366641478999E9 ; 5.667391179225969E9 ; 1.4612804546081186E11 ; 0.0
130 ; 4.399396298625931E7 ; 1.2121017053315475E9 ; 5.711422621354988E9 ; 1.4734008212495975E11 ; 0.0
131 ; 4.3952211937150575E7 ; 1.2121666638820822E9 ; 5.755416584341248E9 ; 1.485521838302913E11 ; 0.0
132 ; 4.3920430161332674E7 ; 1.2122315364425273E9 ; 5.7993687962783985E9 ; 1.4976435049417337E11 ; 0.0
133 ; 4.3868384685028866E7 ; 1.2122963197127314E9 ; 5.843289226439732E9 ; 1.509765820306159E11 ; 0.0
134 ; 4.382590339425792E7 ; 1.21236101044772E9 ; 5.887157611124761E9 ; 1.5218887835032864E11 ; 0.0
135 ; 4.378666166948338E7 ; 1.212425605456106E9 ; 5.930983514519018E9 ; 1.5340123936077637E11 ; 0.0
136 ; 4.375070221700546E7 ; 1.212490101598556E9 ; 5.974770176188501E9 ; 1.5461366496623248E11 ; 0.0
137 ; 4.370174497618112E7 ; 1.2125544957863135E9 ; 6.018520878405507E9 ; 1.5582615506783102E11 ; 0.0
138 ; 4.366241768137112E7 ; 1.2126187849797716E9 ; 6.062222623381688E9 ; 1.5703870956361734E11 ; 0.0
139 ; 4.361038954168885E7 ; 1.212682966187099E9 ; 6.105885041063059E9 ; 1.582513283485971E11 ; 0.0
140 ; 4.356914375521568E7 ; 1.212747036462913E9 ; 6.149495430604748E9 ; 1.594640113147842E11 ; 0.0
141 ; 4.352285289670081E7 ; 1.212810992907001E9 ; 6.193064574359963E9 ; 1.6067675835124713E11 ; 0.0
142 ; 4.3474585045224674E7 ; 1.2128748326630838E9 ; 6.236587427256664E9 ; 1.6188956934415414E11 ; 0.0
143 ; 4.342906658716674E7 ; 1.2129385529176261E9 ; 6.280062012301889E9 ; 1.6310244417681723E11 ; 0.0
144 ; 4.33853336217742E7 ; 1.213002150898687E9 ; 6.323491078889056E9 ; 1.6431538272973486E11 ; 0.0
145 ; 4.33601204416687E7 ; 1.2130656238748088E9 ; 6.36687641251083E9 ; 1.6552838488063354E11 ; 0.0
146 ; 4.332834926981765E7 ; 1.2131289691539483E9 ; 6.410236532952498E9 ; 1.6674145050450836E11 ; 0.0
147 ; 4.3302632666322246E7 ; 1.2131921840824423E9 ; 6.453564882222316E9 ; 1.6795457947366232E11 ; 0.0
148 ; 4.327535656417814E7 ; 1.2132552660440104E9 ; 6.4968675148886385E9 ; 1.6916777165774475E11 ; 0.0
149 ; 4.3240534866389394E7 ; 1.213318212458791E9 ; 6.540142871452817E9 ; 1.7038102692378876E11 ; 0.0
150 ; 4.3220335038274914E7 ; 1.2133810207824116E9 ; 6.583383406319206E9 ; 1.7159434513624756E11 ; 0.0
151 ; 4.3183762858942226E7 ; 1.2134436885050907E9 ; 6.626603741357481E9 ; 1.7280772615702997E11 ; 0.0
152 ; 4.3156307000073195E7 ; 1.2135062131507719E9 ; 6.669787504216423E9 ; 1.7402116984553506E11 ; 0.0
153 ; 4.312615250866253E7 ; 1.2135685922762828E9 ; 6.712943811216496E9 ; 1.7523467605868582E11 ; 0.0
154 ; 4.309331697049032E7 ; 1.2136308234705293E9 ; 6.756069963725159E9 ; 1.764482446509621E11 ; 0.0
155 ; 4.3060201354017E7 ; 1.2136929043537128E9 ; 6.799163280695649E9 ; 1.7766187547443262E11 ; 0.0
156 ; 4.303127652718173E7 ; 1.2137548325765738E9 ; 6.842223482049666E9 ; 1.7887556837878632E11 ; 0.0
157 ; 4.300133703333855E7 ; 1.2138166058196645E9 ; 6.885254758576848E9 ; 1.8008932321136288E11 ; 0.0
158 ; 4.2970435353217945E7 ; 1.213878221792642E9 ; 6.928256095610187E9 ; 1.8130313981718256E11 ; 0.0
159 ; 4.294215354936992E7 ; 1.2139396782335882E9 ; 6.971226530963405E9 ; 1.825170180389752E11 ; 0.0
160 ; 4.2905362149616614E7 ; 1.2140009729083498E9 ; 7.014168684512774E9 ; 1.8373095771720877E11 ; 0.0
161 ; 4.2875316141236216E7 ; 1.2140621036099033E9 ; 7.057074046662391E9 ; 1.8494495869011713E11 ; 0.0
162 ; 4.284555707711546E7 ; 1.2141230681577392E9 ; 7.099949362803627E9 ; 1.8615902079372702E11 ; 0.0
163 ; 4.280938493496883E7 ; 1.2141838643972664E9 ; 7.142794919880742E9 ; 1.8737314386188477E11 ; 0.0
164 ; 4.2785676839471884E7 ; 1.2142444901992383E9 ; 7.185604304815711E9 ; 1.8858732772628204E11 ; 0.0
165 ; 4.274551826330744E7 ; 1.2143049434591956E9 ; 7.228389981655183E9 ; 1.898015722164813E11 ; 0.0
166 ; 4.271419656390384E7 ; 1.214365222096929E9 ; 7.27113549991849E9 ; 1.910158771599405E11 ; 0.0
167 ; 4.267899129508057E7 ; 1.214425324055959E9 ; 7.313849696482394E9 ; 1.922302423820374E11 ; 0.0
168 ; 4.2649005626317784E7 ; 1.2144852473030334E9 ; 7.356528687777474E9 ; 1.9344466770609338E11 ; 0.0
169 ; 4.261703558550868E7 ; 1.2145449898276386E9 ; 7.399177693403792E9 ; 1.9465915295339642E11 ; 0.0
170 ; 4.258804970523888E7 ; 1.214604549641531E9 ; 7.441794728989301E9 ; 1.9587369794322406E11 ; 0.0
171 ; 4.255089662748212E7 ; 1.2146639247782815E9 ; 7.48438277869454E9 ; 1.970883024928656E11 ; 0.0
172 ; 4.25221180879851E7 ; 1.2147231132928324E9 ; 7.526933675322022E9 ; 1.983029664176439E11 ; 0.0
173 ; 4.249167896349268E7 ; 1.2147821132610738E9 ; 7.569455793410007E9 ; 1.9951768953093674E11 ; 0.0
174 ; 4.2468016991271876E7 ; 1.2148409227794287E9 ; 7.6119474723735E9 ; 2.007324716441978E11 ; 0.0
175 ; 4.24546485301504E7 ; 1.2148995399644551E9 ; 7.654415489364772E9 ; 2.0194731256697723E11 ; 0.0
176 ; 4.242568893007433E7 ; 1.2149579629524584E9 ; 7.696870137894922E9 ; 2.0316221210694168E11 ; 0.0
177 ; 4.240826520925166E7 ; 1.2150161898991177E9 ; 7.739295826824997E9 ; 2.0437717006989413E11 ; 0.0
178 ; 4.239103410365902E7 ; 1.215074218979123E9 ; 7.781704092034248E9 ; 2.0559218625979324E11 ; 0.0
179 ; 4.237682214647176E7 ; 1.2151320483858242E9 ; 7.824095126137907E9 ; 2.0680726047877237E11 ; 0.0
180 ; 4.234725799232685E7 ; 1.2151896763308933E9 ; 7.866471948284379E9 ; 2.080223925271582E11 ; 0.0
181 ; 4.2328915928597465E7 ; 1.2152471010439928E9 ; 7.908819206276706E9 ; 2.092375822034891E11 ; 0.0
182 ; 4.230951176862244E7 ; 1.215304320772459E9 ; 7.951148122205303E9 ; 2.104528293045331E11 ; 0.0
183 ; 4.229435441600613E7 ; 1.2153613337809932E9 ; 7.993457633973926E9 ; 2.1166813362530557E11 ; 0.0
184 ; 4.2270857114980884E7 ; 1.2154181383513627E9 ; 8.035751988389932E9 ; 2.1288349495908658E11 ; 0.0
185 ; 4.224864556931491E7 ; 1.2154747327821124E9 ; 8.078022845504912E9 ; 2.1409891309743793E11 ; 0.0
186 ; 4.222972841555023E7 ; 1.215531115388282E9 ; 8.120271491074227E9 ; 2.1531438783022003E11 ; 0.0
187 ; 4.22052512104001E7 ; 1.215587284501138E9 ; 8.162501219489778E9 ; 2.165299189456083E11 ; 0.0
188 ; 4.21871410384323E7 ; 1.2156432384679074E9 ; 8.204706470700177E9 ; 2.1774550623010944E11 ; 0.0
189 ; 4.216408951491686E7 ; 1.2156989756515253E9 ; 8.246893611738609E9 ; 2.1896114946857733E11 ; 0.0
190 ; 4.2152455900289446E7 ; 1.2157544944303856E9 ; 8.289057701253526E9 ; 2.2017684844422885E11 ; 0.0
191 ; 4.212295461470143E7 ; 1.2158097931981034E9 ; 8.331210157153815E9 ; 2.2139260293865924E11 ; 0.0
192 ; 4.210180758549561E7 ; 1.2158648703632834E9 ; 8.373333111768517E9 ; 2.2260841273185733E11 ; 0.0
193 ; 4.208122059386346E7 ; 1.2159197243492923E9 ; 8.4154349193540125E9 ; 2.238242776022206E11 ; 0.0
194 ; 4.206157254386692E7 ; 1.2159743535940444E9 ; 8.457516139947876E9 ; 2.2504019732656992E11 ; 0.0
195 ; 4.204843301921393E7 ; 1.2160287565497882E9 ; 8.499577712491743E9 ; 2.2625617168016397E11 ; 0.0
196 ; 4.202523813155027E7 ; 1.2160829316829023E9 ; 8.541626145510957E9 ; 2.2747220043671375E11 ; 0.0
