CSV File for the Network on Day 273
1 - Minute m 
2 - Power Consumed at minute m 
3 - Power Produced at minute m 
4 - Energy Consumed since the beginning of the day 
5 - Energy Produced since the beginning of the day 
6 - Energy Lost since the beginning of the day 
 
0 ; 1.884939686713653E7 ; 6.3593734169783E8 ; 0.0 ; 0.0 ; 0.0
1 ; 1.8878615809945345E7 ; 6.368482702928305E8 ; 1.884939686713653E7 ; 6.3593734169783E8 ; 0.0
2 ; 1.890600880464578E7 ; 6.396125877388889E8 ; 3.7728012677081876E7 ; 1.2727856119906604E9 ; 0.0
3 ; 1.8938499939190112E7 ; 6.442303076570694E8 ; 5.663402148172766E7 ; 1.9123981997295494E9 ; 0.0
4 ; 1.898189370844228E7 ; 6.507014422212563E8 ; 7.557252142091778E7 ; 2.5566285073866186E9 ; 0.0
5 ; 1.9030266686513707E7 ; 6.590260021019535E8 ; 9.455441512936005E7 ; 3.207329949607875E9 ; 0.0
6 ; 1.9101226981148504E7 ; 6.69203996416244E8 ; 1.1358468181587376E8 ; 3.8663559517098284E9 ; 0.0
7 ; 1.9214583239271518E7 ; 6.812354326844602E8 ; 1.3268590879702225E8 ; 4.535559948126072E9 ; 0.0
8 ; 1.9388337448754765E7 ; 6.95120316794039E8 ; 1.5190049203629377E8 ; 5.216795380810532E9 ; 0.0
9 ; 1.965739612150572E7 ; 7.108586529709721E8 ; 1.7128882948504853E8 ; 5.91191569760457E9 ; 0.0
10 ; 2.007912919101638E7 ; 7.284504437591746E8 ; 1.9094622560655424E8 ; 6.622774350575542E9 ; 0.0
11 ; 2.0750242742010236E7 ; 7.478956900080092E8 ; 2.1102535479757062E8 ; 7.351224794334717E9 ; 0.0
12 ; 2.1838376383885972E7 ; 7.691943908681132E8 ; 2.3177559753958085E8 ; 8.099120484342726E9 ; 0.0
13 ; 2.2885176014967125E7 ; 7.923465437955711E8 ; 2.5361397392346683E8 ; 8.868314875210838E9 ; 0.0
14 ; 2.3004428758951083E7 ; 8.173521445643921E8 ; 2.7649914993843395E8 ; 9.660661419006409E9 ; 0.0
15 ; 2.3035976820579853E7 ; 8.442111872871385E8 ; 2.99503578697385E8 ; 1.04780135635708E10 ; 0.0
16 ; 2.306373055842456E7 ; 8.729236644434786E8 ; 3.2253955551796484E8 ; 1.1322224750857939E10 ; 0.0
17 ; 2.3104715236902222E7 ; 9.034895669163288E8 ; 3.456032860763894E8 ; 1.2195148415301418E10 ; 0.0
18 ; 2.3135394915562376E7 ; 9.359088840351851E8 ; 3.687080013132916E8 ; 1.3098637982217747E10 ; 0.0
19 ; 2.316970271305904E7 ; 9.701816036261638E8 ; 3.91843396228854E8 ; 1.4034546866252932E10 ; 0.0
20 ; 2.3212294706568927E7 ; 1.0063077120682001E9 ; 4.1501309894191307E8 ; 1.5004728469879095E10 ; 0.0
21 ; 2.3242997708461005E7 ; 1.0442871943548203E9 ; 4.3822539364848197E8 ; 1.6011036181947296E10 ; 0.0
22 ; 2.3277482863136865E7 ; 1.0841200341608357E9 ; 4.6146839135694295E8 ; 1.7055323376302116E10 ; 0.0
23 ; 2.3316435459633105E7 ; 1.1258062139132993E9 ; 4.8474587422007984E8 ; 1.813944341046295E10 ; 0.0
24 ; 2.3352531006461963E7 ; 1.1693457148660243E9 ; 5.0806230967971295E8 ; 1.926524962437625E10 ; 0.0
25 ; 2.3388450688892573E7 ; 1.2068667625660808E9 ; 5.314148406861749E8 ; 2.0434595339242275E10 ; 0.0
26 ; 2.34246268038039E7 ; 1.206890623154736E9 ; 5.548032913750675E8 ; 2.1641462101808357E10 ; 0.0
27 ; 2.3460691719470114E7 ; 1.2069158905979366E9 ; 5.782279181788714E8 ; 2.2848352724963093E10 ; 0.0
28 ; 2.349137703865251E7 ; 1.2069425422488387E9 ; 6.016886098983415E8 ; 2.4055268615561028E10 ; 0.0
29 ; 2.352877048278341E7 ; 1.2069705546893783E9 ; 6.251799869369941E8 ; 2.5262211157809868E10 ; 0.0
30 ; 2.3567328382309664E7 ; 1.2069999038119822E9 ; 6.487087574197775E8 ; 2.6469181712499245E10 ; 0.0
31 ; 2.359470206779112E7 ; 1.207030564900338E9 ; 6.722760858020872E8 ; 2.7676181616311226E10 ; 0.0
32 ; 2.3624301431253675E7 ; 1.2070625127087224E9 ; 6.958707878698783E8 ; 2.8883212181211563E10 ; 0.0
33 ; 2.366089266009288E7 ; 1.2070957215394301E9 ; 7.19495089301132E8 ; 3.0090274693920284E10 ; 0.0
34 ; 2.3685618799673006E7 ; 1.2071301653179092E9 ; 7.431559819612248E8 ; 3.1297370415459713E10 ; 0.0
35 ; 2.3714026086660363E7 ; 1.2071658176652439E9 ; 7.668416007608978E8 ; 3.2504500580777622E10 ; 0.0
36 ; 2.37359622324108E7 ; 1.207202651967701E9 ; 7.905556268475581E8 ; 3.3711666398442867E10 ; 0.0
37 ; 2.3755708386530202E7 ; 1.20724064144309E9 ; 8.142915890799689E8 ; 3.491886905041057E10 ; 0.0
38 ; 2.379166996590537E7 ; 1.2072797592037416E9 ; 8.380472974664991E8 ; 3.612610969185366E10 ; 0.0
39 ; 2.3812355547118984E7 ; 1.2073199783159661E9 ; 8.618389674324045E8 ; 3.73333894510574E10 ; 0.0
40 ; 2.382832528912986E7 ; 1.207361271855885E9 ; 8.856513229795235E8 ; 3.854070942937337E10 ; 0.0
41 ; 2.3851520003259696E7 ; 1.2074036129615777E9 ; 9.094796482686534E8 ; 3.9748070701229256E10 ; 0.0
42 ; 2.387139063292906E7 ; 1.2074469748815227E9 ; 9.33331168271913E8 ; 4.0955474314190834E10 ; 0.0
43 ; 2.3884913942738805E7 ; 1.207491331019347E9 ; 9.572025589048421E8 ; 4.216292128907236E10 ; 0.0
44 ; 2.3888806974746037E7 ; 1.207536654974921E9 ; 9.810874728475809E8 ; 4.3370412620091705E10 ; 0.0
45 ; 2.390553069911997E7 ; 1.2075829205818765E9 ; 1.0049762798223269E9 ; 4.457794927506663E10 ; 0.0
46 ; 2.3914213156291455E7 ; 1.2076301019416313E9 ; 1.0288818105214468E9 ; 4.5785532195648506E10 ; 0.0
47 ; 2.3928977304124616E7 ; 1.2076781734540386E9 ; 1.0527960236777383E9 ; 4.699316229759013E10 ; 0.0
48 ; 2.3929179355843097E7 ; 1.2077271098447824E9 ; 1.076725000981863E9 ; 4.8200840471044174E10 ; 0.0
49 ; 2.3937234039413646E7 ; 1.207776886189662E9 ; 1.100654180337706E9 ; 4.9408567580888954E10 ; 0.0
50 ; 2.394053976458169E7 ; 1.2078274779359124E9 ; 1.1245914143771198E9 ; 5.061634446707861E10 ; 0.0
51 ; 2.3941868777613714E7 ; 1.2078788609207182E9 ; 1.1485319541417015E9 ; 5.182417194501453E10 ; 0.0
52 ; 2.3941120481481843E7 ; 1.2079310113870778E9 ; 1.172473822919315E9 ; 5.303205080593524E10 ; 0.0
53 ; 2.395313392852182E7 ; 1.2079839059971848E9 ; 1.196414943400797E9 ; 5.423998181732232E10 ; 0.0
54 ; 2.3943161463775493E7 ; 1.2080375218434873E9 ; 1.2203680773293188E9 ; 5.54479657233195E10 ; 0.0
55 ; 2.39433229007473E7 ; 1.2080918364575853E9 ; 1.2443112387930942E9 ; 5.6656003245162994E10 ; 0.0
56 ; 2.3944749803043753E7 ; 1.2081468278171296E9 ; 1.2682545616938415E9 ; 5.786409508162058E10 ; 0.0
57 ; 2.394261557299502E7 ; 1.208202474350873E9 ; 1.2921993114968853E9 ; 5.907224190943771E10 ; 0.0
58 ; 2.394130410908866E7 ; 1.2082587549420295E9 ; 1.3161419270698802E9 ; 6.028044438378859E10 ; 0.0
59 ; 2.3942997904601026E7 ; 1.208315648930081E9 ; 1.340083231178969E9 ; 6.148870313873062E10 ; 0.0
60 ; 2.393791001727987E7 ; 1.2083731361111758E9 ; 1.36402622908357E9 ; 6.2697018787660706E10 ; 0.0
61 ; 2.3940464479909167E7 ; 1.2084311967372494E9 ; 1.3879641391008499E9 ; 6.390539192377188E10 ; 0.0
62 ; 2.3932416342076506E7 ; 1.2084898115139925E9 ; 1.411904603580759E9 ; 6.511382312050913E10 ; 0.0
63 ; 2.3932608583900467E7 ; 1.2085489615977888E9 ; 1.4358370199228356E9 ; 6.6322312932023125E10 ; 0.0
64 ; 2.3925333755611483E7 ; 1.2086086285917268E9 ; 1.459769628506736E9 ; 6.753086189362091E10 ; 0.0
65 ; 2.3919038872864433E7 ; 1.2086687945408013E9 ; 1.4836949622623475E9 ; 6.873947052221263E10 ; 0.0
66 ; 2.391989234539321E7 ; 1.208729441926392E9 ; 1.507614001135212E9 ; 6.994813931675343E10 ; 0.0
67 ; 2.3919037528505042E7 ; 1.2087905536601164E9 ; 1.5315338934806051E9 ; 7.115686875867982E10 ; 0.0
68 ; 2.3915421354487166E7 ; 1.2088521130771363E9 ; 1.5554529310091102E9 ; 7.236565931233994E10 ; 0.0
69 ; 2.3912173209947426E7 ; 1.2089141039290018E9 ; 1.5793683523635974E9 ; 7.357451142541707E10 ; 0.0
70 ; 2.3908797486428037E7 ; 1.208976510376098E9 ; 1.6032805255735447E9 ; 7.478342552934607E10 ; 0.0
71 ; 2.3898158353036065E7 ; 1.2090393169797628E9 ; 1.6271893230599728E9 ; 7.599240203972217E10 ; 0.0
72 ; 2.389669920787266E7 ; 1.2091025086941376E9 ; 1.651087481413009E9 ; 7.720144135670193E10 ; 0.0
73 ; 2.389200910345964E7 ; 1.2091660708577995E9 ; 1.6749841806208816E9 ; 7.841054386539607E10 ; 0.0
74 ; 2.3878949222840976E7 ; 1.2092299891852312E9 ; 1.6988761897243412E9 ; 7.961970993625388E10 ; 0.0
75 ; 2.387967519350839E7 ; 1.20929424975817E9 ; 1.7227551389471822E9 ; 8.08289399254391E10 ; 0.0
76 ; 2.386527865024251E7 ; 1.2093588390168748E9 ; 1.7466348141406906E9 ; 8.203823417519727E10 ; 0.0
77 ; 2.386395663518872E7 ; 1.2094237437513528E9 ; 1.7705000927909331E9 ; 8.324759301421414E10 ; 0.0
78 ; 2.3839626727626916E7 ; 1.2094889510925715E9 ; 1.794364049426122E9 ; 8.44570167579655E10 ; 0.0
79 ; 2.382423167886267E7 ; 1.2095544485036898E9 ; 1.8182036761537488E9 ; 8.566650570905807E10 ; 0.0
80 ; 2.3795962112565257E7 ; 1.2096202237713315E9 ; 1.8420279078326113E9 ; 8.687606015756177E10 ; 0.0
81 ; 2.377507278672087E7 ; 1.2096862649969268E9 ; 1.8658238699451766E9 ; 8.80856803813331E10 ; 0.0
82 ; 2.3755578274730276E7 ; 1.2097525605881357E9 ; 1.8895989427318974E9 ; 8.929536664633003E10 ; 0.0
83 ; 2.3736197241014086E7 ; 1.2098190992503777E9 ; 1.9133545210066276E9 ; 9.050511920691817E10 ; 0.0
84 ; 2.3714187155522432E7 ; 1.2098858699784777E9 ; 1.9370907182476416E9 ; 9.171493830616855E10 ; 0.0
85 ; 2.3689622891349856E7 ; 1.209952862048443E9 ; 1.960804905403164E9 ; 9.292482417614703E10 ; 0.0
86 ; 2.36653800726939E7 ; 1.2100200650093822E9 ; 1.9844945282945137E9 ; 9.413477703819548E10 ; 0.0
87 ; 2.3646151864423037E7 ; 1.2100874686755738E9 ; 2.0081599083672075E9 ; 9.534479710320486E10 ; 0.0
88 ; 2.36246849181998E7 ; 1.210155063118696E9 ; 2.0318060602316306E9 ; 9.655488457188043E10 ; 0.0
89 ; 2.3597574778855883E7 ; 1.2102228386602178E9 ; 2.0554307451498303E9 ; 9.776503963499913E10 ; 0.0
90 ; 2.3572730943108104E7 ; 1.2102907858639617E9 ; 2.0790283199286861E9 ; 9.897526247365935E10 ; 0.0
91 ; 2.3548401149831958E7 ; 1.2103588955288396E9 ; 2.1026010508717942E9 ; 1.0018555325952332E11 ; 0.0
92 ; 2.352011250401643E7 ; 1.2104271586817646E9 ; 2.1261494520216262E9 ; 1.0139591215505215E11 ; 0.0
93 ; 2.349958359801457E7 ; 1.2104955665707388E9 ; 2.149669564525643E9 ; 1.0260633931373392E11 ; 0.0
94 ; 2.3467207014923282E7 ; 1.210564110658123E9 ; 2.173169148123657E9 ; 1.0381683488030466E11 ; 0.0
95 ; 2.344140892791167E7 ; 1.2106327826140828E9 ; 2.1966363551385803E9 ; 1.0502739899096278E11 ; 0.0
96 ; 2.3414099886125844E7 ; 1.2107015743102143E9 ; 2.220077764066492E9 ; 1.0623803177357687E11 ; 0.0
97 ; 2.3390594183111556E7 ; 1.2107704778133478E9 ; 2.243491863952618E9 ; 1.0744873334788708E11 ; 0.0
98 ; 2.336669143663856E7 ; 1.210839485379527E9 ; 2.26688245813573E9 ; 1.0865950382570044E11 ; 0.0
99 ; 2.3334442565449134E7 ; 1.2109085894481626E9 ; 2.290249149572368E9 ; 1.0987034331107997E11 ; 0.0
100 ; 2.3311373024384357E7 ; 1.2109777826363585E9 ; 2.3135835921378174E9 ; 1.1108125190052814E11 ; 0.0
101 ; 2.3277625277803056E7 ; 1.2110470577334068E9 ; 2.336894965162202E9 ; 1.1229222968316449E11 ; 0.0
102 ; 2.324648600834018E7 ; 1.2111164076954508E9 ; 2.360172590440005E9 ; 1.135032767408979E11 ; 0.0
103 ; 2.3225741583097424E7 ; 1.2111858256403089E9 ; 2.383419076448345E9 ; 1.1471439314859335E11 ; 0.0
104 ; 2.3192886068525244E7 ; 1.2112553048424635E9 ; 2.4066448180314426E9 ; 1.1592557897423366E11 ; 0.0
105 ; 2.316526893342922E7 ; 1.2113248387282019E9 ; 2.429837704099968E9 ; 1.1713683427907613E11 ; 0.0
106 ; 2.3132011023615032E7 ; 1.2113944208709142E9 ; 2.453002973033397E9 ; 1.1834815911780432E11 ; 0.0
107 ; 2.3106573100719087E7 ; 1.211464044986539E9 ; 2.476134984057012E9 ; 1.1955955353867523E11 ; 0.0
108 ; 2.307928004632829E7 ; 1.2115337049291577E9 ; 2.499241557157731E9 ; 1.2077101758366177E11 ; 0.0
109 ; 2.3046059683606133E7 ; 1.211603394686729E9 ; 2.522320837204059E9 ; 1.2198255128859093E11 ; 0.0
110 ; 2.30115273453757E7 ; 1.2116731083769636E9 ; 2.5453668968876653E9 ; 1.2319415468327765E11 ; 0.0
111 ; 2.2986929936933596E7 ; 1.2117428402433326E9 ; 2.568378424233041E9 ; 1.2440582779165462E11 ; 0.0
112 ; 2.2951718453566927E7 ; 1.2118125846512094E9 ; 2.5913653541699743E9 ; 1.2561757063189795E11 ; 0.0
113 ; 2.2920552939797692E7 ; 1.211882336084137E9 ; 2.6143170726235414E9 ; 1.2682938321654916E11 ; 0.0
114 ; 2.288525553952522E7 ; 1.211952089140219E9 ; 2.637237625563339E9 ; 1.280412655526333E11 ; 0.0
115 ; 2.2856405070133224E7 ; 1.212021838528634E9 ; 2.6601228811028643E9 ; 1.2925321764177351E11 ; 0.0
116 ; 2.2824839243851915E7 ; 1.2120915790662625E9 ; 2.6829792861729975E9 ; 1.3046523948030215E11 ; 0.0
117 ; 2.27934094661168E7 ; 1.2121613056744277E9 ; 2.7058041254168496E9 ; 1.3167733105936842E11 ; 0.0
118 ; 2.2756123753671296E7 ; 1.212231013375749E9 ; 2.7285975348829665E9 ; 1.3288949236504285E11 ; 0.0
119 ; 2.2725586604657806E7 ; 1.2123006972910967E9 ; 2.7513536586366377E9 ; 1.341017233784186E11 ; 0.0
120 ; 2.268769485703591E7 ; 1.2123703526366532E9 ; 2.7740792452412953E9 ; 1.3531402407570969E11 ; 0.0
121 ; 2.265226275582909E7 ; 1.2124399747210705E9 ; 2.7967669400983315E9 ; 1.3652639442834634E11 ; 0.0
122 ; 2.26231259503405E7 ; 1.2125095589427261E9 ; 2.8194192028541603E9 ; 1.377388344030674E11 ; 0.0
123 ; 2.2588822390172187E7 ; 1.2125791007870717E9 ; 2.8420423288045006E9 ; 1.3895134396201013E11 ; 0.0
124 ; 2.2549321131776758E7 ; 1.2126485958240688E9 ; 2.8646311511946726E9 ; 1.401639230627972E11 ; 0.0
125 ; 2.2508621672739144E7 ; 1.2127180397057157E9 ; 2.8871804723264494E9 ; 1.4137657165862128E11 ; 0.0
126 ; 2.2477149087687887E7 ; 1.2127874281636543E9 ; 2.9096890939991884E9 ; 1.42589289698327E11 ; 0.0
127 ; 2.2433860005369585E7 ; 1.2128567570068617E9 ; 2.9321662430868764E9 ; 1.4380207712649066E11 ; 0.0
128 ; 2.2400456213689357E7 ; 1.2129260221194162E9 ; 2.954600103092246E9 ; 1.4501493388349753E11 ; 0.0
129 ; 2.235837880604304E7 ; 1.2129952194583437E9 ; 2.9770005593059354E9 ; 1.4622785990561694E11 ; 0.0
130 ; 2.231716646788492E7 ; 1.2130643450515313E9 ; 2.9993589381119785E9 ; 1.474408551250753E11 ; 0.0
131 ; 2.2265841658645257E7 ; 1.2131333949957175E9 ; 3.0216761045798635E9 ; 1.4865391947012683E11 ; 0.0
132 ; 2.2219771758612968E7 ; 1.2132023654545474E9 ; 3.0439419462385087E9 ; 1.4986705286512256E11 ; 0.0
133 ; 2.216127565791391E7 ; 1.213271252656693E9 ; 3.066161717997122E9 ; 1.5108025523057712E11 ; 0.0
134 ; 2.211793714785343E7 ; 1.2133400528940392E9 ; 3.0883229936550355E9 ; 1.5229352648323383E11 ; 0.0
135 ; 2.206328381999677E7 ; 1.2134087625199301E9 ; 3.110440930802889E9 ; 1.5350686653612787E11 ; 0.0
136 ; 2.2013215698350366E7 ; 1.213477377947474E9 ; 3.1325042146228857E9 ; 1.547202752986478E11 ; 0.0
137 ; 2.195593256385221E7 ; 1.2135458956479058E9 ; 3.154517430321236E9 ; 1.5593375267659528E11 ; 0.0
138 ; 2.1900604059719633E7 ; 1.213614312149005E9 ; 3.1764733628850884E9 ; 1.571472985722432E11 ; 0.0
139 ; 2.1852625219527207E7 ; 1.2136826240335674E9 ; 3.198373966944808E9 ; 1.583609128843922E11 ; 0.0
140 ; 2.1797580851553548E7 ; 1.2137508279379253E9 ; 3.2202265921643353E9 ; 1.5957459550842578E11 ; 0.0
141 ; 2.174187660896443E7 ; 1.2138189205505211E9 ; 3.2420241730158887E9 ; 1.607883463363637E11 ; 0.0
142 ; 2.1689858290744934E7 ; 1.2138868986105251E9 ; 3.263766049624853E9 ; 1.620021652569142E11 ; 0.0
143 ; 2.1638074237624817E7 ; 1.213954758906503E9 ; 3.285455907915598E9 ; 1.6321605215552475E11 ; 0.0
144 ; 2.1575551765938163E7 ; 1.2140224982751236E9 ; 3.3070939821532226E9 ; 1.6443000691443124E11 ; 0.0
145 ; 2.153668098884906E7 ; 1.2140901135999136E9 ; 3.328669533919161E9 ; 1.6564402941270636E11 ; 0.0
146 ; 2.149887883339317E7 ; 1.2141576018100517E9 ; 3.35020621490801E9 ; 1.6685811952630627E11 ; 0.0
147 ; 2.1459695794776946E7 ; 1.2142249598792024E9 ; 3.371705093741403E9 ; 1.6807227712811633E11 ; 0.0
148 ; 2.1423455047170427E7 ; 1.2142921848243883E9 ; 3.39316478953618E9 ; 1.6928650208799554E11 ; 0.0
149 ; 2.1386287306474563E7 ; 1.2143592737049017E9 ; 3.4145882445833507E9 ; 1.7050079427281995E11 ; 0.0
150 ; 2.1346041367592845E7 ; 1.2144262236212502E9 ; 3.4359745318898253E9 ; 1.7171515354652484E11 ; 0.0
151 ; 2.1308431379631184E7 ; 1.2144930317141366E9 ; 3.457320573257418E9 ; 1.729295797701461E11 ; 0.0
152 ; 2.1278329290355243E7 ; 1.2145596951634736E9 ; 3.478629004637049E9 ; 1.7414407280186023E11 ; 0.0
153 ; 2.1229374228882145E7 ; 1.2146262111874301E9 ; 3.4999073339274044E9 ; 1.753586324970237E11 ; 0.0
154 ; 2.119125598249924E7 ; 1.2146925770415082E9 ; 3.5211367081562867E9 ; 1.7657325870821115E11 ; 0.0
155 ; 2.114962892625302E7 ; 1.214758790017652E9 ; 3.542327964138786E9 ; 1.7778795128525266E11 ; 0.0
156 ; 2.1114346870011073E7 ; 1.214824847443383E9 ; 3.5634775930650387E9 ; 1.790027100752703E11 ; 0.0
157 ; 2.1074610076500267E7 ; 1.2148907466809652E9 ; 3.5845919399350495E9 ; 1.8021753492271368E11 ; 0.0
158 ; 2.1034781113990895E7 ; 1.2149564851265965E9 ; 3.60566655001155E9 ; 1.8143242566939465E11 ; 0.0
159 ; 2.098645106828694E7 ; 1.2150220602096267E9 ; 3.6267013311255407E9 ; 1.8264738215452124E11 ; 0.0
160 ; 2.0951439880361795E7 ; 1.2150874693918002E9 ; 3.6476877821938276E9 ; 1.8386240421473087E11 ; 0.0
161 ; 2.0913533198943168E7 ; 1.215152710166524E9 ; 3.668639222074189E9 ; 1.8507749168412268E11 ; 0.0
162 ; 2.0877367528325878E7 ; 1.215217780058157E9 ; 3.6895527552731323E9 ; 1.862926443942892E11 ; 0.0
163 ; 2.0833164154415615E7 ; 1.2152826766213253E9 ; 3.7104301228014584E9 ; 1.8750786217434738E11 ; 0.0
164 ; 2.0801108154608544E7 ; 1.2153473974402552E9 ; 3.731263286955874E9 ; 1.8872314485096872E11 ; 0.0
165 ; 2.076003247050773E7 ; 1.2154119401281326E9 ; 3.7520643951104827E9 ; 1.8993849224840897E11 ; 0.0
166 ; 2.071245844477479E7 ; 1.215476302326477E9 ; 3.7728244275809903E9 ; 1.911539041885371E11 ; 0.0
167 ; 2.0671657375263058E7 ; 1.2155404817045412E9 ; 3.793536886025765E9 ; 1.923693804908636E11 ; 0.0
168 ; 2.063337886839729E7 ; 1.215604475958724E9 ; 3.814208543401028E9 ; 1.935849209725681E11 ; 0.0
169 ; 2.0590579064596795E7 ; 1.2156682828120065E9 ; 3.8348419222694254E9 ; 1.9480052544852682E11 ; 0.0
170 ; 2.0547609136581875E7 ; 1.215731900013404E9 ; 3.855432501334022E9 ; 1.9601619373133884E11 ; 0.0
171 ; 2.0513803207573958E7 ; 1.2157953253374329E9 ; 3.875980110470604E9 ; 1.9723192563135223E11 ; 0.0
172 ; 2.0472800912297286E7 ; 1.2158585565836005E9 ; 3.896493913678178E9 ; 1.9844772095668967E11 ; 0.0
173 ; 2.0428357633315705E7 ; 1.215921591575903E9 ; 3.916966714590475E9 ; 1.9966357951327325E11 ; 0.0
174 ; 2.0398453807169415E7 ; 1.215984428162345E9 ; 3.9373950722237906E9 ; 2.0087950110484915E11 ; 0.0
175 ; 2.036533290721251E7 ; 1.2160470642144713E9 ; 3.95779352603096E9 ; 2.020954855330115E11 ; 0.0
176 ; 2.0330245330374528E7 ; 1.216109497626914E9 ; 3.978158858938173E9 ; 2.0331153259722598E11 ; 0.0
177 ; 2.0295268598582245E7 ; 1.216171726316953E9 ; 3.9984891042685475E9 ; 2.045276420948529E11 ; 0.0
178 ; 2.0265159543646414E7 ; 1.2162337482240908E9 ; 4.01878437286713E9 ; 2.0574381382116986E11 ; 0.0
179 ; 2.0232462226940993E7 ; 1.21629556130964E9 ; 4.039049532410776E9 ; 2.0696004756939395E11 ; 0.0
180 ; 2.019979910648523E7 ; 1.216357163556324E9 ; 4.0592819946377172E9 ; 2.0817634313070358E11 ; 0.0
181 ; 2.016616172694698E7 ; 1.2164185529678879E9 ; 4.0794817937442026E9 ; 2.0939270029425992E11 ; 0.0
182 ; 2.0134069275177866E7 ; 1.2164797275687258E9 ; 4.0996479554711494E9 ; 2.106091188472278E11 ; 0.0
183 ; 2.0102468694207698E7 ; 1.2165406854035134E9 ; 4.1197820247463274E9 ; 2.1182559857479654E11 ; 0.0
184 ; 2.006839506089338E7 ; 1.2166014245368567E9 ; 4.139884493440535E9 ; 2.1304213926020004E11 ; 0.0
185 ; 2.0042962498653278E7 ; 1.2166619430529501E9 ; 4.1599528885014286E9 ; 2.142587406847369E11 ; 0.0
186 ; 2.00068339318047E7 ; 1.2167222390552425E9 ; 4.179995851000082E9 ; 2.1547540262778986E11 ; 0.0
187 ; 1.9974014735594712E7 ; 1.2167823106661177E9 ; 4.2000026849318867E9 ; 2.166921248668451E11 ; 0.0
188 ; 1.994017206958148E7 ; 1.21684215602658E9 ; 4.2199766996674814E9 ; 2.179089071775112E11 ; 0.0
189 ; 1.9908247263753437E7 ; 1.2169017732959533E9 ; 4.239916871737063E9 ; 2.1912574933353778E11 ; 0.0
190 ; 1.987892363009314E7 ; 1.2169611606515865E9 ; 4.2598251190008163E9 ; 2.2034265110683374E11 ; 0.0
191 ; 1.9841087190985348E7 ; 1.2170203162885685E9 ; 4.2797040426309094E9 ; 2.2155961226748532E11 ; 0.0
192 ; 1.9809435149489693E7 ; 1.2170792384194517E9 ; 4.299545129821895E9 ; 2.227766325837739E11 ; 0.0
193 ; 1.977751924666429E7 ; 1.2171379252739856E9 ; 4.319354564971384E9 ; 2.2399371182219336E11 ; 0.0
194 ; 1.9744480712363556E7 ; 1.2171963750988545E9 ; 4.339132084218048E9 ; 2.2521084974746735E11 ; 0.0
195 ; 1.971036461696869E7 ; 1.2172545861574259E9 ; 4.358876564930411E9 ; 2.264280461225662E11 ; 0.0
