CSV File for the Network on Day 14
1 - Minute m 
2 - Power Consumed at minute m 
3 - Power Produced at minute m 
4 - Energy Consumed since the beginning of the day 
5 - Energy Produced since the beginning of the day 
6 - Energy Lost since the beginning of the day 
 
0 ; 3.841362380948086E7 ; 6.32038432761026E8 ; 0.0 ; 0.0 ; 0.0
1 ; 3.846013478797785E7 ; 6.329294361955594E8 ; 3.841362380948086E7 ; 6.32038432761026E8 ; 0.0
2 ; 3.849668982443301E7 ; 6.35674930074089E8 ; 7.687375859745872E7 ; 1.2649678689565854E9 ; 0.0
3 ; 3.855077883832468E7 ; 6.402751794351869E8 ; 1.1537044842189172E8 ; 1.9006427990306745E9 ; 0.0
4 ; 3.860071730220866E7 ; 6.467304567351356E8 ; 1.5392122726021641E8 ; 2.5409179784658613E9 ; 0.0
5 ; 3.86680230926103E7 ; 6.550410340596648E8 ; 1.9252194456242508E8 ; 3.187648435200997E9 ; 0.0
6 ; 3.876760561293013E7 ; 6.652071731216494E8 ; 2.3118996765503538E8 ; 3.8426894692606616E9 ; 0.0
7 ; 3.8888292427997254E7 ; 6.772291134349297E8 ; 2.699575732679655E8 ; 4.507896642382311E9 ; 0.0
8 ; 3.908070684688536E7 ; 6.911070595152295E8 ; 3.088458656959627E8 ; 5.185125755817241E9 ; 0.0
9 ; 3.9362044099108174E7 ; 7.06841168405002E8 ; 3.479265725428481E8 ; 5.87623281533247E9 ; 0.0
10 ; 3.979235468162474E7 ; 7.244315391016711E8 ; 3.8728861664195627E8 ; 6.583073983737472E9 ; 0.0
11 ; 4.048054627285583E7 ; 7.438782054420393E8 ; 4.27080971323581E8 ; 7.307505522839143E9 ; 0.0
12 ; 4.158613701806901E7 ; 7.651811335893036E8 ; 4.675615175964368E8 ; 8.051383728281182E9 ; 0.0
13 ; 4.264776294376155E7 ; 7.883402245460408E8 ; 5.091476546145058E8 ; 8.816564861870485E9 ; 0.0
14 ; 4.2774600499014206E7 ; 8.133553212697976E8 ; 5.517954175582674E8 ; 9.604905086416527E9 ; 0.0
15 ; 4.282391906930652E7 ; 8.402262192448499E8 ; 5.945700180572816E8 ; 1.0418260407686325E10 ; 0.0
16 ; 4.287071098325199E7 ; 8.689526789573579E8 ; 6.373939371265881E8 ; 1.1258486626931175E10 ; 0.0
17 ; 4.2926567322197706E7 ; 8.995344386944461E8 ; 6.802646481098402E8 ; 1.2127439305888533E10 ; 0.0
18 ; 4.2971092181308396E7 ; 9.319712263703854E8 ; 7.231912154320378E8 ; 1.302697374458298E10 ; 0.0
19 ; 4.302627852676165E7 ; 9.662627695288928E8 ; 7.661623076133462E8 ; 1.3958944970953365E10 ; 0.0
20 ; 4.307432185755442E7 ; 1.0024088031313962E9 ; 8.091885861401079E8 ; 1.4925207740482258E10 ; 0.0
21 ; 4.312331594523443E7 ; 1.0404090751156125E9 ; 8.522629079976623E8 ; 1.5927616543613653E10 ; 0.0
22 ; 4.317421672987457E7 ; 1.0802633499556463E9 ; 8.953862239428967E8 ; 1.6968025618729265E10 ; 0.0
23 ; 4.322588478002644E7 ; 1.1219714105790095E9 ; 9.385604406727713E8 ; 1.804828896868491E10 ; 0.0
24 ; 4.327381652548607E7 ; 1.165533059026748E9 ; 9.817863254527978E8 ; 1.917026037926392E10 ; 0.0
25 ; 4.332590873783067E7 ; 1.2030763616041522E9 ; 1.0250601419782839E9 ; 2.033579343829067E10 ; 0.0
26 ; 4.337886410545497E7 ; 1.203122444266766E9 ; 1.0683860507161145E9 ; 2.153886979989482E10 ; 0.0
27 ; 4.3421005263295345E7 ; 1.2031697785738115E9 ; 1.1117649148215694E9 ; 2.2741992244161587E10 ; 0.0
28 ; 4.347164676953013E7 ; 1.2032182357870388E9 ; 1.1551859200848649E9 ; 2.3945162022735397E10 ; 0.0
29 ; 4.351888031418244E7 ; 1.203267701185341E9 ; 1.198657566854395E9 ; 2.5148380258522438E10 ; 0.0
30 ; 4.356654590743433E7 ; 1.2033180726383944E9 ; 1.2421764471685774E9 ; 2.635164795970778E10 ; 0.0
31 ; 4.3605539583895124E7 ; 1.2033692592495313E9 ; 1.2857429930760117E9 ; 2.7554966032346172E10 ; 0.0
32 ; 4.364851006451275E7 ; 1.2034211800964856E9 ; 1.3293485326599069E9 ; 2.8758335291595703E10 ; 0.0
33 ; 4.3699790352128E7 ; 1.2034737630834548E9 ; 1.3729970427244196E9 ; 2.996175647169219E10 ; 0.0
34 ; 4.373817851841214E7 ; 1.20352694390785E9 ; 1.4166968330765476E9 ; 3.1165230234775642E10 ; 0.0
35 ; 4.377681664769008E7 ; 1.2035806651388183E9 ; 1.4604350115949597E9 ; 3.236875717868349E10 ; 0.0
36 ; 4.382435371087636E7 ; 1.203634875400907E9 ; 1.5042118282426498E9 ; 3.3572337843822308E10 ; 0.0
37 ; 4.3860621286053285E7 ; 1.2036895286543212E9 ; 1.5480361819535263E9 ; 3.477597271922321E10 ; 0.0
38 ; 4.388890860464595E7 ; 1.2037445835624535E9 ; 1.5918968032395794E9 ; 3.597966224787753E10 ; 0.0
39 ; 4.393041911024037E7 ; 1.2038000029373412E9 ; 1.6357857118442254E9 ; 3.718340683143999E10 ; 0.0
40 ; 4.395974097875947E7 ; 1.203855753254113E9 ; 1.6797161309544659E9 ; 3.838720683437733E10 ; 0.0
41 ; 4.399345861449311E7 ; 1.2039118042261305E9 ; 1.7236758719332254E9 ; 3.959106258763144E10 ; 0.0
42 ; 4.4021761223398745E7 ; 1.2039681284332993E9 ; 1.7676693305477185E9 ; 4.079497439185757E10 ; 0.0
43 ; 4.4049316045528E7 ; 1.204024700996806E9 ; 1.8116910917711172E9 ; 4.199894252029086E10 ; 0.0
44 ; 4.40756009171117E7 ; 1.2040814992943132E9 ; 1.8557404078166451E9 ; 4.320296722128767E10 ; 0.0
45 ; 4.4102099794880085E7 ; 1.204138502710369E9 ; 1.8998160087337568E9 ; 4.440704872058198E10 ; 0.0
46 ; 4.412398973671587E7 ; 1.204195692417439E9 ; 1.943918108528637E9 ; 4.561118722329234E10 ; 0.0
47 ; 4.4141240589381665E7 ; 1.20425305118357E9 ; 1.9880420982653527E9 ; 4.6815382915709785E10 ; 0.0
48 ; 4.41621053266856E7 ; 1.2043105632032201E9 ; 2.0321833388547344E9 ; 4.801963596689336E10 ; 0.0
49 ; 4.4177716519105405E7 ; 1.2043682139482462E9 ; 2.07634544418142E9 ; 4.922394653009657E10 ; 0.0
50 ; 4.418721327939704E7 ; 1.2044259900364494E9 ; 2.1205231607005255E9 ; 5.042831474404482E10 ; 0.0
51 ; 4.420040733124858E7 ; 1.204483879115426E9 ; 2.164710373979923E9 ; 5.163274073408127E10 ; 0.0
52 ; 4.421631423717439E7 ; 1.2045418697597797E9 ; 2.2089107813111715E9 ; 5.283722461319669E10 ; 0.0
53 ; 4.422126510734415E7 ; 1.2045999513800058E9 ; 2.253127095548346E9 ; 5.4041766482956474E10 ; 0.0
54 ; 4.4244424616858274E7 ; 1.2046581141415927E9 ; 2.29734836065569E9 ; 5.524636643433648E10 ; 0.0
55 ; 4.4246526486661956E7 ; 1.204716348893076E9 ; 2.3415927852725487E9 ; 5.645102454847807E10 ; 0.0
56 ; 4.425619607533848E7 ; 1.2047746471019456E9 ; 2.3858393117592106E9 ; 5.765574089737115E10 ; 0.0
57 ; 4.42625195837357E7 ; 1.204833000797463E9 ; 2.430095507834549E9 ; 5.886051554447309E10 ; 0.0
58 ; 4.427946751258588E7 ; 1.2048914025195518E9 ; 2.4743580274182844E9 ; 6.006534854527055E10 ; 0.0
59 ; 4.428529910137968E7 ; 1.2049498452730515E9 ; 2.51863749493087E9 ; 6.127023994779011E10 ; 0.0
60 ; 4.429426049353364E7 ; 1.2050083224867015E9 ; 2.56292279403225E9 ; 6.2475189793063156E10 ; 0.0
61 ; 4.430599956695023E7 ; 1.20506682797631E9 ; 2.6072170545257835E9 ; 6.368019811554986E10 ; 0.0
62 ; 4.430925069366894E7 ; 1.2051253559116342E9 ; 2.651523054092734E9 ; 6.488526494352617E10 ; 0.0
63 ; 4.4316998747657046E7 ; 1.2051839007865443E9 ; 2.6958323047864027E9 ; 6.6090390299437805E10 ; 0.0
64 ; 4.432767622877124E7 ; 1.205242457392115E9 ; 2.7401493035340595E9 ; 6.729557420022435E10 ; 0.0
65 ; 4.432808012659812E7 ; 1.2053010207923174E9 ; 2.7844769797628307E9 ; 6.850081665761646E10 ; 0.0
66 ; 4.433591731704326E7 ; 1.2053595863020265E9 ; 2.828805059889429E9 ; 6.970611767840878E10 ; 0.0
67 ; 4.433879439840569E7 ; 1.205418149467103E9 ; 2.8731409772064724E9 ; 7.091147726471082E10 ; 0.0
68 ; 4.435259188371505E7 ; 1.2054767060463216E9 ; 2.917479771604878E9 ; 7.211689541417792E10 ; 0.0
69 ; 4.435140546262296E7 ; 1.205535251994957E9 ; 2.961832363488593E9 ; 7.332237212022424E10 ; 0.0
70 ; 4.4359654105949946E7 ; 1.2055937834498556E9 ; 3.006183768951216E9 ; 7.452790737221921E10 ; 0.0
71 ; 4.436249692808397E7 ; 1.2056522967158384E9 ; 3.050543423057166E9 ; 7.573350115566907E10 ; 0.0
72 ; 4.436160094900703E7 ; 1.2057107882533052E9 ; 3.09490591998525E9 ; 7.69391534523849E10 ; 0.0
73 ; 4.436516505747566E7 ; 1.2057692546669168E9 ; 3.139267520934257E9 ; 7.814486424063821E10 ; 0.0
74 ; 4.436617885227737E7 ; 1.205827692695249E9 ; 3.1836326859917326E9 ; 7.935063349530513E10 ; 0.0
75 ; 4.436874837221064E7 ; 1.2058860992013268E9 ; 3.22799886484401E9 ; 8.055646118800038E10 ; 0.0
76 ; 4.4372054652442805E7 ; 1.205944471163951E9 ; 3.2723676132162204E9 ; 8.17623472872017E10 ; 0.0
77 ; 4.43716305748599E7 ; 1.206002805669742E9 ; 3.3167396678686633E9 ; 8.296829175836566E10 ; 0.0
78 ; 4.436694733012192E7 ; 1.20606109990584E9 ; 3.3611112984435234E9 ; 8.41742945640354E10 ; 0.0
79 ; 4.4348980645498216E7 ; 1.2061193511531858E9 ; 3.4054782457736454E9 ; 8.538035566394124E10 ; 0.0
80 ; 4.4335963899349175E7 ; 1.2061775567803485E9 ; 3.4498272264191437E9 ; 8.658647501509442E10 ; 0.0
81 ; 4.432387499708992E7 ; 1.2062357142378337E9 ; 3.494163190318493E9 ; 8.779265257187477E10 ; 0.0
82 ; 4.431341417902198E7 ; 1.2062938210528378E9 ; 3.5384870653155828E9 ; 8.899888828611261E10 ; 0.0
83 ; 4.429647162521422E7 ; 1.206351874824408E9 ; 3.5828004794946046E9 ; 9.020518210716545E10 ; 0.0
84 ; 4.428276986532046E7 ; 1.2064098732189698E9 ; 3.6270969511198187E9 ; 9.141153398198985E10 ; 0.0
85 ; 4.4266358398417816E7 ; 1.206467813966193E9 ; 3.6713797209851394E9 ; 9.261794385520882E10 ; 0.0
86 ; 4.425568884875914E7 ; 1.2065256948551648E9 ; 3.7156460793835573E9 ; 9.3824411669175E10 ; 0.0
87 ; 4.423636792426895E7 ; 1.206583513730847E9 ; 3.7599017682323165E9 ; 9.503093736403017E10 ; 0.0
88 ; 4.422575247690719E7 ; 1.2066412684907877E9 ; 3.804138136156585E9 ; 9.623752087776102E10 ; 0.0
89 ; 4.4205388817289636E7 ; 1.2066989570820773E9 ; 3.8483638886334925E9 ; 9.74441621462518E10 ; 0.0
90 ; 4.41867035007338E7 ; 1.206756577498513E9 ; 3.8925692774507823E9 ; 9.865086110333388E10 ; 0.0
91 ; 4.4166599293926276E7 ; 1.2068141277779713E9 ; 3.936755980951516E9 ; 9.98576176808324E10 ; 0.0
92 ; 4.415138682003751E7 ; 1.206871605999961E9 ; 3.9809225802454424E9 ; 1.0106443180861037E11 ; 0.0
93 ; 4.412775494108661E7 ; 1.2069290102833436E9 ; 4.0250739670654798E9 ; 1.0227130341461032E11 ; 0.0
94 ; 4.4115574454541095E7 ; 1.2069863387842143E9 ; 4.0692017220065665E9 ; 1.0347823242489366E11 ; 0.0
95 ; 4.409472988908992E7 ; 1.2070435896939242E9 ; 4.1133172964611077E9 ; 1.0468521876367787E11 ; 0.0
96 ; 4.407113353661579E7 ; 1.2071007612372346E9 ; 4.157412026350198E9 ; 1.058922623533718E11 ; 0.0
97 ; 4.4056249159686714E7 ; 1.2071578516705961E9 ; 4.2014831598868136E9 ; 1.0709936311460902E11 ; 0.0
98 ; 4.403221304482912E7 ; 1.2072148592805405E9 ; 4.2455394090465E9 ; 1.0830652096627962E11 ; 0.0
99 ; 4.402083655363576E7 ; 1.207271782382176E9 ; 4.289571622091329E9 ; 1.0951373582556015E11 ; 0.0
100 ; 4.39940286836312E7 ; 1.2073286193177824E9 ; 4.333592458644965E9 ; 1.1072100760794232E11 ; 0.0
101 ; 4.397771580780797E7 ; 1.2073853684554946E9 ; 4.377586487328596E9 ; 1.119283362272601E11 ; 0.0
102 ; 4.394969591296956E7 ; 1.2074420281880698E9 ; 4.421564203136404E9 ; 1.1313572159571559E11 ; 0.0
103 ; 4.392203694426349E7 ; 1.2074985969317327E9 ; 4.465513899049374E9 ; 1.1434316362390366E11 ; 0.0
104 ; 4.3900444924760945E7 ; 1.2075550731250932E9 ; 4.509435935993637E9 ; 1.1555066222083539E11 ; 0.0
105 ; 4.387547597234143E7 ; 1.207611455228129E9 ; 4.553336380918398E9 ; 1.1675821729396048E11 ; 0.0
106 ; 4.38545340346434E7 ; 1.207667741721234E9 ; 4.597211856890739E9 ; 1.1796582874918861E11 ; 0.0
107 ; 4.382931990020842E7 ; 1.2077239311043212E9 ; 4.641066390925383E9 ; 1.1917349649090985E11 ; 0.0
108 ; 4.380250790848848E7 ; 1.207780021895982E9 ; 4.684895710825591E9 ; 1.2038122042201418E11 ; 0.0
109 ; 4.3777076108635426E7 ; 1.2078360126326942E9 ; 4.728698218734079E9 ; 1.2158900044391016E11 ; 0.0
110 ; 4.3750002213169046E7 ; 1.207891901868078E9 ; 4.772475294842714E9 ; 1.2279683645654285E11 ; 0.0
111 ; 4.372902212697874E7 ; 1.2079476881721969E9 ; 4.816225297055883E9 ; 1.2400472835841092E11 ; 0.0
112 ; 4.3704868025893815E7 ; 1.2080033701308963E9 ; 4.859954319182862E9 ; 1.2521267604658311E11 ; 0.0
113 ; 4.3679667847062945E7 ; 1.2080589463451834E9 ; 4.903659187208756E9 ; 1.26420679416714E11 ; 0.0
114 ; 4.3651256787127495E7 ; 1.2081144154306417E9 ; 4.9473388550558195E9 ; 1.2762873836305919E11 ; 0.0
115 ; 4.362395402663412E7 ; 1.2081697760168788E9 ; 4.990990111842947E9 ; 1.2883685277848984E11 ; 0.0
116 ; 4.359723383298842E7 ; 1.2082250267470067E9 ; 5.034614065869581E9 ; 1.3004502255450671E11 ; 0.0
117 ; 4.356134641838159E7 ; 1.2082801662771487E9 ; 5.07821129970257E9 ; 1.3125324758125372E11 ; 0.0
118 ; 4.353770639126522E7 ; 1.2083351932759783E9 ; 5.121772646120952E9 ; 1.3246152774753087E11 ; 0.0
119 ; 4.350449990870436E7 ; 1.2083901064242797E9 ; 5.165310352512217E9 ; 1.3366986294080685E11 ; 0.0
120 ; 4.347644500825454E7 ; 1.208444904414534E9 ; 5.208814852420921E9 ; 1.3487825304723114E11 ; 0.0
121 ; 4.344829023166439E7 ; 1.2084995859505293E9 ; 5.252291297429176E9 ; 1.3608669795164568E11 ; 0.0
122 ; 4.341158514258757E7 ; 1.20855414974699E9 ; 5.295739587660841E9 ; 1.372951975375962E11 ; 0.0
123 ; 4.338190543083444E7 ; 1.2086085945292292E9 ; 5.339151172803429E9 ; 1.385037516873432E11 ; 0.0
124 ; 4.335053785732885E7 ; 1.208662919032816E9 ; 5.382533078234263E9 ; 1.3971236028187244E11 ; 0.0
125 ; 4.3320086769614086E7 ; 1.2087171220032637E9 ; 5.425883616091592E9 ; 1.4092102320090524E11 ; 0.0
126 ; 4.329062646339618E7 ; 1.208771202195734E9 ; 5.469203702861206E9 ; 1.421297403229085E11 ; 0.0
127 ; 4.325600634839507E7 ; 1.2088251583747563E9 ; 5.512494329324602E9 ; 1.4333851152510425E11 ; 0.0
128 ; 4.321565610773568E7 ; 1.208878989313962E9 ; 5.555750335672997E9 ; 1.44547336683479E11 ; 0.0
129 ; 4.31833549513284E7 ; 1.2089326937958329E9 ; 5.598965991780733E9 ; 1.4575621567279297E11 ; 0.0
130 ; 4.314631692189121E7 ; 1.208986270611463E9 ; 5.642149346732061E9 ; 1.469651483665888E11 ; 0.0
131 ; 4.309247510497595E7 ; 1.2090397185603342E9 ; 5.685295663653953E9 ; 1.4817413463720026E11 ; 0.0
132 ; 4.304912986200504E7 ; 1.209093036450098E9 ; 5.728388138758928E9 ; 1.493831743557606E11 ; 0.0
133 ; 4.300748111253993E7 ; 1.209146223096378E9 ; 5.771437268620934E9 ; 1.505922673922107E11 ; 0.0
134 ; 4.295220794501388E7 ; 1.2091992773225722E9 ; 5.814444749733474E9 ; 1.5180141361530707E11 ; 0.0
135 ; 4.2906232743562266E7 ; 1.2092521979596734E9 ; 5.857396957678488E9 ; 1.5301061289262964E11 ; 0.0
136 ; 4.285308403074695E7 ; 1.209304983846095E9 ; 5.90030319042205E9 ; 1.5421986509058932E11 ; 0.0
137 ; 4.280038992573105E7 ; 1.2093576338275063E9 ; 5.943156274452798E9 ; 1.5542917007443542E11 ; 0.0
138 ; 4.276041083119503E7 ; 1.209410146756677E9 ; 5.985956664378529E9 ; 1.5663852770826294E11 ; 0.0
139 ; 4.270616945357916E7 ; 1.209462521493328E9 ; 6.028717075209723E9 ; 1.5784793785501962E11 ; 0.0
140 ; 4.26464210427755E7 ; 1.2095147569039922E9 ; 6.071423244663302E9 ; 1.5905740037651294E11 ; 0.0
141 ; 4.25938811271809E7 ; 1.20956685186188E9 ; 6.114069665706078E9 ; 1.6026691513341693E11 ; 0.0
142 ; 4.25407946909149E7 ; 1.209618805246753E9 ; 6.156663546833259E9 ; 1.614764819852788E11 ; 0.0
143 ; 4.249485400292821E7 ; 1.2096706159448028E9 ; 6.199204341524174E9 ; 1.6268610079052557E11 ; 0.0
144 ; 4.2437899519562244E7 ; 1.209722282848538E9 ; 6.2416991955271015E9 ; 1.6389577140647037E11 ; 0.0
145 ; 4.2403214270893626E7 ; 1.2097738048566747E9 ; 6.284137095046663E9 ; 1.651054936893189E11 ; 0.0
146 ; 4.236190342226304E7 ; 1.2098251808740335E9 ; 6.326540309317557E9 ; 1.663152674941756E11 ; 0.0
147 ; 4.232862367083365E7 ; 1.2098764098114429E9 ; 6.3689022127398205E9 ; 1.6752509267504962E11 ; 0.0
148 ; 4.228704072373061E7 ; 1.2099274905856433E9 ; 6.411230836410654E9 ; 1.6873496908486105E11 ; 0.0
149 ; 4.226200179900434E7 ; 1.2099784221192024E9 ; 6.453517877134385E9 ; 1.699448965754467E11 ; 0.0
150 ; 4.222079842491066E7 ; 1.2100292033404288E9 ; 6.49577987893339E9 ; 1.711548749975659E11 ; 0.0
151 ; 4.217943661285415E7 ; 1.210079833183294E9 ; 6.5380006773583E9 ; 1.723649042009063E11 ; 0.0
152 ; 4.214135376325637E7 ; 1.210130310587355E9 ; 6.580180113971154E9 ; 1.735749840340896E11 ; 0.0
153 ; 4.210412717992313E7 ; 1.210180634497684E9 ; 6.62232146773441E9 ; 1.7478511434467694E11 ; 0.0
154 ; 4.206666600455161E7 ; 1.2102308038648E9 ; 6.664425594914333E9 ; 1.7599529497917462E11 ; 0.0
155 ; 4.2026655575817116E7 ; 1.2102808176446042E9 ; 6.706492260918885E9 ; 1.7720552578303943E11 ; 0.0
156 ; 4.199459537373351E7 ; 1.2103306747983184E9 ; 6.748518916494702E9 ; 1.7841580660068402E11 ; 0.0
157 ; 4.195103320651489E7 ; 1.2103803742924259E9 ; 6.790513511868436E9 ; 1.7962613727548233E11 ; 0.0
158 ; 4.191052451096155E7 ; 1.2104299150986187E9 ; 6.832464545074951E9 ; 1.8083651764977475E11 ; 0.0
159 ; 4.187612386294095E7 ; 1.210479296193743E9 ; 6.874375069585913E9 ; 1.8204694756487338E11 ; 0.0
160 ; 4.183268467912387E7 ; 1.2105285165597494E9 ; 6.9162511934488535E9 ; 1.8325742686106714E11 ; 0.0
161 ; 4.1794947326354235E7 ; 1.2105775751836479E9 ; 6.958083878127977E9 ; 1.844679553776269E11 ; 0.0
162 ; 4.175357053920501E7 ; 1.2106264710574617E9 ; 6.999878825454331E9 ; 1.8567853295281055E11 ; 0.0
163 ; 4.171101663726982E7 ; 1.2106752031781845E9 ; 7.041632395993536E9 ; 1.86889159423868E11 ; 0.0
164 ; 4.16756930815631E7 ; 1.2107237705477428E9 ; 7.083343412630806E9 ; 1.880998346270462E11 ; 0.0
165 ; 4.163351489718183E7 ; 1.2107721721729555E9 ; 7.125019105712369E9 ; 1.8931055839759393E11 ; 0.0
166 ; 4.159322346759903E7 ; 1.2108204070654993E9 ; 7.16665262060955E9 ; 1.9052133056976688E11 ; 0.0
167 ; 4.1549962901215345E7 ; 1.2108684742418752E9 ; 7.208245844077149E9 ; 1.9173215097683237E11 ; 0.0
168 ; 4.151286096975875E7 ; 1.2109163727233753E9 ; 7.249795806978365E9 ; 1.9294301945107425E11 ; 0.0
169 ; 4.147680085648755E7 ; 1.2109641015360546E9 ; 7.291308667948124E9 ; 1.9415393582379764E11 ; 0.0
170 ; 4.1428151114947125E7 ; 1.2110116597107005E9 ; 7.332785468804611E9 ; 1.9536489992533368E11 ; 0.0
171 ; 4.138369910548059E7 ; 1.2110590462828074E9 ; 7.374213619919559E9 ; 1.9657591158504437E11 ; 0.0
172 ; 4.134566742061155E7 ; 1.2111062602925491E9 ; 7.415597319025039E9 ; 1.9778697063132718E11 ; 0.0
173 ; 4.131088399893525E7 ; 1.211153300784759E9 ; 7.45694298644565E9 ; 1.9899807689161972E11 ; 0.0
174 ; 4.128465470419765E7 ; 1.2112001668089042E9 ; 7.498253870444586E9 ; 2.0020923019240448E11 ; 0.0
175 ; 4.1258395563239105E7 ; 1.2112468574190648E9 ; 7.539538525148784E9 ; 2.0142043035921338E11 ; 0.0
176 ; 4.123972195275386E7 ; 1.2112933716739166E9 ; 7.580796920712023E9 ; 2.0263167721663245E11 ; 0.0
177 ; 4.121258917078665E7 ; 1.2113397086367097E9 ; 7.622036642664777E9 ; 2.0384297058830637E11 ; 0.0
178 ; 4.11810758424097E7 ; 1.2113858673752532E9 ; 7.663249231835564E9 ; 2.0505431029694308E11 ; 0.0
179 ; 4.1155351011307135E7 ; 1.211431846961898E9 ; 7.704430307677974E9 ; 2.0626569616431833E11 ; 0.0
180 ; 4.1131749014174335E7 ; 1.2114776464735222E9 ; 7.7455856586892805E9 ; 2.074771280112802E11 ; 0.0
181 ; 4.110523473400074E7 ; 1.2115232649915166E9 ; 7.786717407703455E9 ; 2.0868860565775372E11 ; 0.0
182 ; 4.107972239566423E7 ; 1.2115687016017725E9 ; 7.827822642437456E9 ; 2.0990012892274524E11 ; 0.0
183 ; 4.105596082006405E7 ; 1.211613955394668E9 ; 7.86890236483312E9 ; 2.1111169762434702E11 ; 0.0
184 ; 4.102954926182118E7 ; 1.2116590254650593E9 ; 7.909958325653184E9 ; 2.1232331157974167E11 ; 0.0
185 ; 4.1006549651968725E7 ; 1.2117039109122677E9 ; 7.950987874915005E9 ; 2.1353497060520673E11 ; 0.0
186 ; 4.098515722254382E7 ; 1.2117486108400717E9 ; 7.991994424566974E9 ; 2.14746674516119E11 ; 0.0
187 ; 4.095740596545933E7 ; 1.2117931243566983E9 ; 8.032979581789517E9 ; 2.1595842312695905E11 ; 0.0
188 ; 4.093597715737845E7 ; 1.2118374505748146E9 ; 8.073936987754976E9 ; 2.1717021625131573E11 ; 0.0
189 ; 4.09059193852092E7 ; 1.2118815886115212E9 ; 8.114872964912354E9 ; 2.1838205370189056E11 ; 0.0
190 ; 4.0882065513459094E7 ; 1.2119255375883446E9 ; 8.155778884297564E9 ; 2.1959393529050208E11 ; 0.0
191 ; 4.085802037179984E7 ; 1.211969296631233E9 ; 8.196660949811023E9 ; 2.2080586082809042E11 ; 0.0
192 ; 4.08311359484701E7 ; 1.21201286487055E9 ; 8.237518970182822E9 ; 2.2201783012472165E11 ; 0.0
193 ; 4.080477352527328E7 ; 1.21205624144107E9 ; 8.278350106131292E9 ; 2.232298429895922E11 ; 0.0
194 ; 4.078378902957951E7 ; 1.2120994254819756E9 ; 8.319154879656566E9 ; 2.2444189923103326E11 ; 0.0
195 ; 4.0759713032506734E7 ; 1.2121424161368525E9 ; 8.359938668686145E9 ; 2.2565399865651523E11 ; 0.0
196 ; 4.073391120126589E7 ; 1.2121852125536876E9 ; 8.400698381718652E9 ; 2.2686614107265207E11 ; 0.0
197 ; 4.070777060170899E7 ; 1.2122278138848667E9 ; 8.441432292919918E9 ; 2.2807832628520575E11 ; 0.0
