CSV File for the Network on Day 25
1 - Minute m 
2 - Power Consumed at minute m 
3 - Power Produced at minute m 
4 - Energy Consumed since the beginning of the day 
5 - Energy Produced since the beginning of the day 
6 - Energy Lost since the beginning of the day 
 
0 ; 4534128.311148405 ; 2.104764603489806E8 ; 0.0 ; 0.0 ; 0.0
1 ; 4539610.055088169 ; 2.107771575641988E8 ; 4534128.311148405 ; 2.104764603489806E8 ; 356.14
2 ; 4544055.320522373 ; 2.1169558803661257E8 ; 9073738.366236575 ; 4.212536179131794E8 ; 712.28
3 ; 4546270.523723678 ; 2.132318291065657E8 ; 1.3617793686758947E7 ; 6.329492059497919E8 ; 1068.42
4 ; 4551974.133375363 ; 2.1538596919997865E8 ; 1.8164064210482623E7 ; 8.461810350563576E8 ; 1424.56
5 ; 4557158.632518282 ; 2.1815810679746062E8 ; 2.271603834385799E7 ; 1.0615670042563362E9 ; 1780.6999999999998
6 ; 4560200.250291901 ; 2.2154834747764587E8 ; 2.7273196976376273E7 ; 1.2797251110537968E9 ; 2136.8399999999997
7 ; 4565931.692857123 ; 2.255567983984424E8 ; 3.183339722666817E7 ; 1.5012734585314426E9 ; 2492.9799999999996
8 ; 4568225.550038001 ; 2.301835599941408E8 ; 3.6399328919525295E7 ; 1.726830256929885E9 ; 2849.1199999999994
9 ; 4572455.263891443 ; 2.3542871555832267E8 ; 4.09675544695633E7 ; 1.9570138169240258E9 ; 3205.2599999999993
10 ; 4575547.397764756 ; 2.412923205771398E8 ; 4.554000973345474E7 ; 2.1924425324823484E9 ; 3561.399999999999
11 ; 4579322.703629514 ; 2.477743945706684E8 ; 5.01155571312195E7 ; 2.4337348530594883E9 ; 3917.539999999999
12 ; 4582227.447247539 ; 2.548749180188322E8 ; 5.4694879834849015E7 ; 2.6815092476301565E9 ; 4273.679999999999
13 ; 4584276.026864353 ; 2.625938354354794E8 ; 5.927710728209655E7 ; 2.9363841656489887E9 ; 4629.82
14 ; 4587487.044569129 ; 2.709310635270286E8 ; 6.38613833089609E7 ; 3.198978001084468E9 ; 4985.96
15 ; 4591019.6878509475 ; 2.79886501859189E8 ; 6.844887035353003E7 ; 3.4699090646114964E9 ; 5342.1
16 ; 4595410.226847575 ; 2.8946004327405274E8 ; 7.303989004138099E7 ; 3.7497955664706855E9 ; 5698.240000000001
17 ; 4597543.289001428 ; 2.996515821929855E8 ; 7.763530026822856E7 ; 4.039255609744738E9 ; 6054.380000000001
18 ; 4601528.15543774 ; 3.10461020135378E8 ; 8.223284355723E7 ; 4.338907191937723E9 ; 6410.520000000001
19 ; 4603366.489152355 ; 3.218882686753099E8 ; 8.683437171266773E7 ; 4.649368212073101E9 ; 6766.660000000002
20 ; 4608408.040603693 ; 3.339332504724373E8 ; 9.143773820182009E7 ; 4.971256480748411E9 ; 7122.800000000002
21 ; 4613234.871638067 ; 3.465958990641811E8 ; 9.604614624242379E7 ; 5.305189731220848E9 ; 7478.940000000002
22 ; 4614520.85444543 ; 3.5987615797772664E8 ; 1.0065938111406186E8 ; 5.651785630285029E9 ; 7835.080000000003
23 ; 4616528.395093997 ; 3.737739795477332E8 ; 1.0527390196850729E8 ; 6.011661788262756E9 ; 8191.220000000003
24 ; 4621326.775183472 ; 3.882893236755235E8 ; 1.0989043036360128E8 ; 6.38543576781049E9 ; 8547.360000000002
25 ; 4624314.746266033 ; 4.007982384536758E8 ; 1.1451175713878475E8 ; 6.773725091486013E9 ; 8903.500000000002
26 ; 4627446.339508136 ; 4.008077911952717E8 ; 1.1913607188505079E8 ; 7.17452332993969E9 ; 9259.640000000001
27 ; 4629981.902403459 ; 4.0081749658409387E8 ; 1.2376351822455892E8 ; 7.575331121134961E9 ; 9615.78
28 ; 4633639.104281326 ; 4.008273344096998E8 ; 1.2839350012696238E8 ; 7.976148617719055E9 ; 9971.92
29 ; 4633476.103291961 ; 4.008372875227964E8 ; 1.330271392312437E8 ; 8.376975952128755E9 ; 10328.06
30 ; 4638578.769556058 ; 4.0084734131420696E8 ; 1.3766061533453566E8 ; 8.77781323965155E9 ; 10684.199999999999
31 ; 4640277.401345345 ; 4.0085748328655934E8 ; 1.422991941040917E8 ; 9.178660580965757E9 ; 11040.339999999998
32 ; 4643685.389058722 ; 4.008677027028295E8 ; 1.4693947150543705E8 ; 9.579518064252317E9 ; 11396.479999999998
33 ; 4643987.389070917 ; 4.008779902979748E8 ; 1.5158315689449576E8 ; 9.980385766955147E9 ; 11752.619999999997
34 ; 4649498.305233492 ; 4.0088833804205954E8 ; 1.5622714428356668E8 ; 1.0381263757253122E10 ; 12108.759999999997
35 ; 4650131.026360898 ; 4.0089873894529E8 ; 1.6087664258880016E8 ; 1.0782152095295181E10 ; 12464.899999999996
36 ; 4653422.897800185 ; 4.0090918689712477E8 ; 1.6552677361516106E8 ; 1.118305083424047E10 ; 12821.039999999995
37 ; 4654828.99443851 ; 4.009196765331042E8 ; 1.7018019651296124E8 ; 1.1583960021137596E10 ; 13177.179999999995
38 ; 4658979.458148035 ; 4.009302031242604E8 ; 1.7483502550739974E8 ; 1.19848796976707E10 ; 13533.319999999994
39 ; 4660321.472825362 ; 4.0094076248495895E8 ; 1.7949400496554777E8 ; 1.238580990079496E10 ; 13889.459999999994
40 ; 4662733.52647305 ; 4.0095135089582705E8 ; 1.8415432643837312E8 ; 1.2786750663279919E10 ; 14245.599999999993
41 ; 4663557.7492689835 ; 4.009619650390644E8 ; 1.8881705996484616E8 ; 1.3187702014175745E10 ; 14601.739999999993
42 ; 4665375.363502986 ; 4.009726019439506E8 ; 1.9348061771411514E8 ; 1.358866397921481E10 ; 14957.879999999992
43 ; 4666853.080308085 ; 4.0098325894077766E8 ; 1.9814599307761812E8 ; 1.398963658115876E10 ; 15314.019999999991
44 ; 4668747.186488572 ; 4.009939336217656E8 ; 2.028128461579262E8 ; 1.4390619840099537E10 ; 15670.15999999999
45 ; 4669824.543529788 ; 4.01004623807788E8 ; 2.0748159334441477E8 ; 1.4791613773721302E10 ; 16026.29999999999
46 ; 4672007.248243536 ; 4.0101532751994705E8 ; 2.1215141788794455E8 ; 1.519261839752909E10 ; 16382.43999999999
47 ; 4673028.981628532 ; 4.010260429552103E8 ; 2.168234251361881E8 ; 1.5593633725049038E10 ; 16738.57999999999
48 ; 4674729.779277247 ; 4.0103676846546173E8 ; 2.2149645411781663E8 ; 1.5994659768004248E10 ; 17094.71999999999
49 ; 4677636.464941095 ; 4.010475025394311E8 ; 2.2617118389709386E8 ; 1.639569653646971E10 ; 17450.85999999999
50 ; 4676088.767404077 ; 4.0105824378706E8 ; 2.3084882036203495E8 ; 1.679674403900914E10 ; 17806.99999999999
51 ; 4678148.539458658 ; 4.0106899092593443E8 ; 2.3552490912943903E8 ; 1.71978022827962E10 ; 18163.13999999999
52 ; 4674904.975255194 ; 4.0107974276947767E8 ; 2.402030576688977E8 ; 1.7598871273722134E10 ; 18519.279999999988
53 ; 4679540.669682779 ; 4.010904982166472E8 ; 2.4487796264415288E8 ; 1.799995101649161E10 ; 18875.419999999987
54 ; 4679707.509193443 ; 4.011012562429186E8 ; 2.4955750331383565E8 ; 1.840104151470826E10 ; 19231.559999999987
55 ; 4680557.317316425 ; 4.0111201589237607E8 ; 2.542372108230291E8 ; 1.880214277095118E10 ; 19587.699999999986
56 ; 4679850.122146082 ; 4.011227762707563E8 ; 2.589177681403455E8 ; 1.9203254786843555E10 ; 19943.839999999986
57 ; 4681823.704740618 ; 4.011335365393152E8 ; 2.6359761826249158E8 ; 1.960437756311431E10 ; 20299.979999999985
58 ; 4683643.731489419 ; 4.0114429590940833E8 ; 2.682794419672322E8 ; 2.0005511099653625E10 ; 20656.119999999984
59 ; 4684563.903204397 ; 4.011550536376903E8 ; 2.729630856987216E8 ; 2.0406655395563034E10 ; 21012.259999999984
60 ; 4686442.395268043 ; 4.0116580902185357E8 ; 2.7764764960192597E8 ; 2.0807810449200726E10 ; 21368.399999999983
61 ; 4687402.902342652 ; 4.011765613968377E8 ; 2.82334091997194E8 ; 2.120897625822258E10 ; 21724.539999999983
62 ; 4686266.200499995 ; 4.011873101314505E8 ; 2.8702149489953667E8 ; 2.161015281961942E10 ; 22080.679999999982
63 ; 4688303.152123027 ; 4.0119805462534976E8 ; 2.917077611000367E8 ; 2.201134012975087E10 ; 22436.81999999998
64 ; 4687395.605327503 ; 4.012087943063425E8 ; 2.963960642521597E8 ; 2.241253818437622E10 ; 22792.95999999998
65 ; 4689899.202713281 ; 4.012195286279633E8 ; 3.010834598574872E8 ; 2.2813746978682564E10 ; 23149.09999999998
66 ; 4690765.055233144 ; 4.01230257067299E8 ; 3.0577335906020045E8 ; 2.3214966507310528E10 ; 23505.23999999998
67 ; 4692069.783342335 ; 4.012409791230321E8 ; 3.104641241154336E8 ; 2.3616196764377827E10 ; 23861.37999999998
68 ; 4692807.833160962 ; 4.012516943136761E8 ; 3.1515619389877594E8 ; 2.401743774350086E10 ; 24217.51999999998
69 ; 4689699.06410734 ; 4.0126240217598367E8 ; 3.198490017319369E8 ; 2.4418689437814533E10 ; 24573.659999999978
70 ; 4693038.443760621 ; 4.012731022635058E8 ; 3.2453870079604423E8 ; 2.4819951839990517E10 ; 24929.799999999977
71 ; 4692715.540210207 ; 4.012837941452884E8 ; 3.2923173923980486E8 ; 2.522122494225402E10 ; 25285.939999999977
72 ; 4693034.233495278 ; 4.012944774046891E8 ; 3.3392445478001505E8 ; 2.5622508736399307E10 ; 25642.079999999976
73 ; 4693163.6233665375 ; 4.013051516383026E8 ; 3.3861748901351035E8 ; 2.6023803213803997E10 ; 25998.219999999976
74 ; 4694632.97436262 ; 4.013158164549837E8 ; 3.433106526368769E8 ; 2.64251083654423E10 ; 26354.359999999975
75 ; 4691100.972994337 ; 4.0132647147495687E8 ; 3.480052856112395E8 ; 2.682642418189728E10 ; 26710.499999999975
76 ; 4692799.950386311 ; 4.013371163290042E8 ; 3.526963865842338E8 ; 2.722775065337224E10 ; 27066.639999999974
77 ; 4692703.730929863 ; 4.013477506577244E8 ; 3.573891865346201E8 ; 2.762908776970124E10 ; 27422.779999999973
78 ; 4689650.156932025 ; 4.0135837411085427E8 ; 3.6208189026554996E8 ; 2.8030435520358963E10 ; 27778.919999999973
79 ; 4689905.855218764 ; 4.013689863466481E8 ; 3.6677154042248195E8 ; 2.843179389446982E10 ; 28135.059999999972
80 ; 4691503.600496417 ; 4.01379587031309E8 ; 3.714614462777007E8 ; 2.8833162880816467E10 ; 28491.19999999997
81 ; 4692613.319628406 ; 4.0139017583846635E8 ; 3.7615294987819713E8 ; 2.9234542467847775E10 ; 28847.33999999997
82 ; 4690580.711968158 ; 4.014007524486966E8 ; 3.8084556319782555E8 ; 2.963593264368624E10 ; 29203.47999999997
83 ; 4692361.596973395 ; 4.014113165490819E8 ; 3.8553614390979373E8 ; 3.0037333396134937E10 ; 29559.61999999997
84 ; 4692305.184795355 ; 4.014218678328044E8 ; 3.9022850550676715E8 ; 3.043874471268402E10 ; 29915.75999999997
85 ; 4693442.46330839 ; 4.0143240599877137E8 ; 3.9492081069156253E8 ; 3.0840166580516827E10 ; 30271.89999999997
86 ; 4692080.206812485 ; 4.014429307512708E8 ; 3.996142531548709E8 ; 3.12415989865156E10 ; 30628.039999999968
87 ; 4691249.308702223 ; 4.01453441799652E8 ; 4.043063333616834E8 ; 3.164304191726687E10 ; 30984.179999999968
88 ; 4691106.458335738 ; 4.0146393885803133E8 ; 4.0899758267038566E8 ; 3.204449535906652E10 ; 31340.319999999967
89 ; 4689502.365401454 ; 4.014744216450199E8 ; 4.136886891287214E8 ; 3.2445959297924553E10 ; 31696.459999999966
90 ; 4688451.364638143 ; 4.014848898834706E8 ; 4.1837819149412286E8 ; 3.2847433719569572E10 ; 32052.599999999966
91 ; 4689894.399958186 ; 4.01495343300245E8 ; 4.23066642858761E8 ; 3.3248918609453045E10 ; 32408.739999999965
92 ; 4688065.438497596 ; 4.015057816259961E8 ; 4.277565372587192E8 ; 3.365041395275329E10 ; 32764.879999999965
93 ; 4685987.46137492 ; 4.0151620459496725E8 ; 4.324446026972168E8 ; 3.4051919734379284E10 ; 33121.01999999997
94 ; 4685915.682660202 ; 4.01526611944805E8 ; 4.3713059015859175E8 ; 3.445343593897425E10 ; 33477.15999999997
95 ; 4684959.633381295 ; 4.015370034163856E8 ; 4.4181650584125197E8 ; 3.485496255091905E10 ; 33833.29999999997
96 ; 4683828.860057459 ; 4.0154737875365305E8 ; 4.465014654746333E8 ; 3.5256499554335434E10 ; 34189.439999999966
97 ; 4682842.576278265 ; 4.015577377034687E8 ; 4.5118529433469075E8 ; 3.565804693308909E10 ; 34545.579999999965
98 ; 4682924.720939284 ; 4.015680800154711E8 ; 4.55868136910969E8 ; 3.605960467079256E10 ; 34901.719999999965
99 ; 4683175.527480465 ; 4.015784054419453E8 ; 4.605510616319083E8 ; 3.646117275080803E10 ; 35257.859999999964
100 ; 4677744.082963274 ; 4.015887137377007E8 ; 4.652342371593888E8 ; 3.686275115624998E10 ; 35613.99999999996
101 ; 4679417.925306495 ; 4.0159900465995747E8 ; 4.6991198124235207E8 ; 3.726433986998768E10 ; 35970.13999999996
102 ; 4678586.736003646 ; 4.0160927796824026E8 ; 4.7459139916765857E8 ; 3.766593887464764E10 ; 36326.27999999996
103 ; 4676716.566671569 ; 4.016195334242787E8 ; 4.792699859036622E8 ; 3.8067548152615875E10 ; 36682.41999999996
104 ; 4674840.83803895 ; 4.016297707919147E8 ; 4.8394670247033376E8 ; 3.846916768604015E10 ; 37038.55999999996
105 ; 4677089.698589236 ; 4.016399898370155E8 ; 4.886215433083727E8 ; 3.887079745683207E10 ; 37394.69999999996
106 ; 4675665.43232737 ; 4.0165019032739234E8 ; 4.9329863300696194E8 ; 3.927243744666908E10 ; 37750.83999999996
107 ; 4676993.961973569 ; 4.016603720327243E8 ; 4.9797429843928933E8 ; 3.9674087636996475E10 ; 38106.97999999996
108 ; 4673890.97952205 ; 4.0167053472448695E8 ; 5.026512924012629E8 ; 4.00757480090292E10 ; 38463.11999999996
109 ; 4671313.625859806 ; 4.016806781758854E8 ; 5.073251833807849E8 ; 4.0477418543753685E10 ; 38819.25999999996
110 ; 4669180.86490266 ; 4.016908021617916E8 ; 5.119964970066447E8 ; 4.087909922192957E10 ; 39175.39999999996
111 ; 4667696.143390426 ; 4.0170090645868576E8 ; 5.166656778715474E8 ; 4.128079002409136E10 ; 39531.53999999996
112 ; 4668486.447654815 ; 4.017109908446005E8 ; 5.213333740149378E8 ; 4.168249093055005E10 ; 39887.67999999996
113 ; 4666129.443533448 ; 4.0172105509906965E8 ; 5.2600186046259266E8 ; 4.2084201921394646E10 ; 40243.819999999956
114 ; 4666070.957167086 ; 4.0173109900307906E8 ; 5.306679899061261E8 ; 4.248592297649371E10 ; 40599.959999999955
115 ; 4662370.778326008 ; 4.017411223390211E8 ; 5.353340608632932E8 ; 4.2887654075496796E10 ; 40956.099999999955
116 ; 4661626.980740323 ; 4.017511248906516E8 ; 5.399964316416192E8 ; 4.3289395197835815E10 ; 41312.239999999954
117 ; 4658635.558598577 ; 4.017611064430491E8 ; 5.446580586223595E8 ; 4.369114632272646E10 ; 41668.379999999954
118 ; 4658537.985593604 ; 4.017710667825774E8 ; 5.49316694180958E8 ; 4.409290742916951E10 ; 42024.51999999995
119 ; 4656266.972853732 ; 4.017810056968492E8 ; 5.539752321665516E8 ; 4.449467849595209E10 ; 42380.65999999995
120 ; 4654452.883201971 ; 4.017909229746928E8 ; 5.586314991394054E8 ; 4.489645950164893E10 ; 42736.79999999995
121 ; 4652737.641055777 ; 4.0180081840612024E8 ; 5.632859520226073E8 ; 4.529825042462363E10 ; 43092.93999999995
122 ; 4652376.195577412 ; 4.018106917822975E8 ; 5.679386896636631E8 ; 4.570005124302975E10 ; 43449.07999999995
123 ; 4648897.4469922315 ; 4.018205428955166E8 ; 5.725910658592405E8 ; 4.610186193481204E10 ; 43805.21999999995
124 ; 4645079.07227652 ; 4.0183037153916866E8 ; 5.772399633062328E8 ; 4.650368247770756E10 ; 44161.35999999995
125 ; 4642148.092162353 ; 4.018401775077197E8 ; 5.818850423785093E8 ; 4.690551284924673E10 ; 44517.49999999995
126 ; 4639581.456006902 ; 4.018499605966866E8 ; 5.865271904706717E8 ; 4.730735302675445E10 ; 44873.63999999995
127 ; 4637797.49042512 ; 4.0185972060261524E8 ; 5.911667719266785E8 ; 4.7709202987351135E10 ; 45229.77999999995
128 ; 4632753.960915464 ; 4.018694573230597E8 ; 5.958045694171036E8 ; 4.811106270795375E10 ; 45585.91999999995
129 ; 4630481.168599011 ; 4.018791705565627E8 ; 6.004373233780191E8 ; 4.851293216527681E10 ; 45942.05999999995
130 ; 4629613.944292939 ; 4.0188886010263693E8 ; 6.050678045466181E8 ; 4.8914811335833374E10 ; 46298.199999999946
131 ; 4624848.014004565 ; 4.018985257617479E8 ; 6.09697418490911E8 ; 4.931670019593601E10 ; 46654.339999999946
132 ; 4621466.130517781 ; 4.019081673352973E8 ; 6.143222665049156E8 ; 4.971859872169776E10 ; 47010.479999999945
133 ; 4618892.953242706 ; 4.019177846256077E8 ; 6.189437326354334E8 ; 5.012050688903306E10 ; 47366.619999999944
134 ; 4616629.930902406 ; 4.019273774359081E8 ; 6.235626255886761E8 ; 5.052242467365867E10 ; 47722.759999999944
135 ; 4615966.382196353 ; 4.019369455703201E8 ; 6.281792555195785E8 ; 5.0924352051094574E10 ; 48078.89999999994
136 ; 4614688.258842473 ; 4.0194648883384514E8 ; 6.327952219017748E8 ; 5.1326288996664894E10 ; 48435.03999999994
137 ; 4609986.174493873 ; 4.01956007032352E8 ; 6.374099101606172E8 ; 5.172823548549874E10 ; 48791.17999999994
138 ; 4608278.409239396 ; 4.01965499972566E8 ; 6.420198963351111E8 ; 5.213019149253109E10 ; 49147.31999999994
139 ; 4603682.072761564 ; 4.019749674620578E8 ; 6.466281747443506E8 ; 5.2532156992503654E10 ; 49503.45999999994
140 ; 4601104.408114293 ; 4.0198440930923337E8 ; 6.512318568171121E8 ; 5.293413195996571E10 ; 49859.59999999994
141 ; 4599767.322829317 ; 4.019938253233246E8 ; 6.558329612252264E8 ; 5.333611636927495E10 ; 50215.73999999994
142 ; 4597218.9419196015 ; 4.020032153143804E8 ; 6.604327285480558E8 ; 5.3738110194598274E10 ; 50571.87999999994
143 ; 4594295.216655309 ; 4.020125790932582E8 ; 6.650299474899753E8 ; 5.414011340991265E10 ; 50928.01999999994
144 ; 4591435.724376215 ; 4.0202191647161615E8 ; 6.696242427066306E8 ; 5.454212598900591E10 ; 51284.15999999994
145 ; 4588410.287962531 ; 4.020312272619057E8 ; 6.742156784310068E8 ; 5.494414790547753E10 ; 51640.29999999994
146 ; 4587448.099748531 ; 4.0204051127736485E8 ; 6.788040887189693E8 ; 5.534617913273944E10 ; 51996.43999999994
147 ; 4585795.3356995825 ; 4.0204976833201146E8 ; 6.833915368187178E8 ; 5.574821964401681E10 ; 52352.579999999936
148 ; 4583971.388171864 ; 4.0205899824063724E8 ; 6.879773321544174E8 ; 5.6150269412348816E10 ; 52708.719999999936
149 ; 4583312.043766357 ; 4.020682008188022E8 ; 6.925613035425893E8 ; 5.6552328410589455E10 ; 53064.859999999935
150 ; 4582205.129303877 ; 4.020773758828292E8 ; 6.971446155863557E8 ; 5.695439661140826E10 ; 53420.999999999935
151 ; 4581641.281814938 ; 4.0208652324979925E8 ; 7.017268207156596E8 ; 5.7356473987291084E10 ; 53777.139999999934
152 ; 4578297.626801088 ; 4.0209564273754656E8 ; 7.063084619974746E8 ; 5.7758560510540886E10 ; 54133.27999999993
153 ; 4577873.937614591 ; 4.021047341646546E8 ; 7.108867596242757E8 ; 5.8160656153278435E10 ; 54489.41999999993
154 ; 4576687.356618621 ; 4.021137973504518E8 ; 7.154646335618902E8 ; 5.856276088744309E10 ; 54845.55999999993
155 ; 4577725.956493053 ; 4.0212283211500835E8 ; 7.200413209185089E8 ; 5.896487468479354E10 ; 55201.69999999993
156 ; 4575228.622317715 ; 4.021318382791321E8 ; 7.246190468750019E8 ; 5.936699751690855E10 ; 55557.83999999993
157 ; 4575482.855472257 ; 4.02140815664366E8 ; 7.291942754973196E8 ; 5.9769129355187675E10 ; 55913.97999999993
158 ; 4573033.986677564 ; 4.02149764092985E8 ; 7.337697583527918E8 ; 6.017127017085204E10 ; 56270.11999999993
159 ; 4569917.973813106 ; 4.021586833879932E8 ; 7.383427923394693E8 ; 6.057341993494503E10 ; 56626.25999999993
160 ; 4569622.1721566925 ; 4.0216757337312186E8 ; 7.429127103132824E8 ; 6.097557861833302E10 ; 56982.39999999993
161 ; 4568546.622437528 ; 4.021764338728266E8 ; 7.474823324854391E8 ; 6.137774619170615E10 ; 57338.53999999993
162 ; 4567187.065034549 ; 4.0218526471228576E8 ; 7.520508791078765E8 ; 6.177992262557897E10 ; 57694.67999999993
163 ; 4564212.403401018 ; 4.0219406571739864E8 ; 7.56618066172911E8 ; 6.218210789029126E10 ; 58050.81999999993
164 ; 4562714.956375137 ; 4.0220283671478343E8 ; 7.611822785763121E8 ; 6.258430195600866E10 ; 58406.95999999993
165 ; 4559831.621897396 ; 4.0221157753177625E8 ; 7.657449935326872E8 ; 6.298650479272344E10 ; 58763.099999999926
166 ; 4558080.377863381 ; 4.0222028799642944E8 ; 7.703048251545845E8 ; 6.338871637025522E10 ; 59119.239999999925
167 ; 4557113.732963103 ; 4.0222896793751055E8 ; 7.748629055324479E8 ; 6.379093665825165E10 ; 59475.379999999925
168 ; 4553789.552353363 ; 4.022376171845015E8 ; 7.79420019265411E8 ; 6.4193165626189156E10 ; 59831.519999999924
169 ; 4553649.624198551 ; 4.0224623556759775E8 ; 7.839738088177644E8 ; 6.459540324337366E10 ; 60187.65999999992
170 ; 4552107.163953643 ; 4.022548229177071E8 ; 7.88527458441963E8 ; 6.499764947894125E10 ; 60543.79999999992
171 ; 4549347.993546168 ; 4.0226337906644964E8 ; 7.930795656059166E8 ; 6.539990430185896E10 ; 60899.93999999992
172 ; 4547719.97383679 ; 4.022719038461573E8 ; 7.976289135994627E8 ; 6.5802167680925415E10 ; 61256.07999999992
173 ; 4547226.844932298 ; 4.022803970898731E8 ; 8.021766335732995E8 ; 6.6204439584771576E10 ; 61612.21999999992
174 ; 4548944.382386403 ; 4.0228885863135123E8 ; 8.067238604182318E8 ; 6.660671998186145E10 ; 61968.35999999992
175 ; 4547956.921961987 ; 4.022972883050571E8 ; 8.112728048006183E8 ; 6.70090088404928E10 ; 62324.49999999992
176 ; 4547057.74126744 ; 4.023056859461669E8 ; 8.158207617225803E8 ; 6.741130612879785E10 ; 62680.63999999992
177 ; 4548290.264143928 ; 4.023140513905679E8 ; 8.203678194638478E8 ; 6.781361181474402E10 ; 63036.77999999992
