CSV File for the Network on Day 313
1 - Minute m 
2 - Power Consumed at minute m 
3 - Power Produced at minute m 
4 - Energy Consumed since the beginning of the day 
5 - Energy Produced since the beginning of the day 
6 - Energy Lost since the beginning of the day 
 
0 ; 3.900281542101267E7 ; 6.379522443079851E8 ; 0.0 ; 0.0 ; 0.0
1 ; 3.9051572304311275E7 ; 6.388619842501897E8 ; 3.900281542101267E7 ; 6.379522443079851E8 ; 0.0
2 ; 3.9087332356322065E7 ; 6.416252445742736E8 ; 7.805438772532395E7 ; 1.2768142285581746E9 ; 0.0
3 ; 3.91430013513167E7 ; 6.462420368589773E8 ; 1.1714172008164601E8 ; 1.9184394731324482E9 ; 0.0
4 ; 3.9196133915151216E7 ; 6.527123714219215E8 ; 1.5628472143296272E8 ; 2.5646815099914255E9 ; 0.0
5 ; 3.927280065347719E7 ; 6.610362572827175E8 ; 1.9548085534811392E8 ; 3.2173938814133472E9 ; 0.0
6 ; 3.936156396924735E7 ; 6.712137021303272E8 ; 2.3475365600159112E8 ; 3.878430138696065E9 ; 0.0
7 ; 3.949683163686587E7 ; 6.832447122949529E8 ; 2.741152199708385E8 ; 4.549643840826392E9 ; 0.0
8 ; 3.967948943675564E7 ; 6.971292927246916E8 ; 3.1361205160770434E8 ; 5.2328885531213455E9 ; 0.0
9 ; 3.9963650808439046E7 ; 7.128674469671633E8 ; 3.5329154104446E8 ; 5.930017845846037E9 ; 0.0
10 ; 4.040617859722504E7 ; 7.304591771562693E8 ; 3.932551918528991E8 ; 6.6428852928132E9 ; 0.0
11 ; 4.10991242445971E7 ; 7.499044840042003E8 ; 4.3366137045012414E8 ; 7.373344469969469E9 ; 0.0
12 ; 4.2210592566412024E7 ; 7.712033667987658E8 ; 4.747604946947212E8 ; 8.123248953973669E9 ; 0.0
13 ; 4.3269237167851456E7 ; 7.943558234060639E8 ; 5.1697108726113325E8 ; 8.894452320772434E9 ; 0.0
14 ; 4.340360979498516E7 ; 8.193618502784753E8 ; 5.602403244289848E8 ; 9.688808144178497E9 ; 0.0
15 ; 4.345701012764665E7 ; 8.462214424679024E8 ; 6.036439342239699E8 ; 1.0508169994456972E10 ; 0.0
16 ; 4.350249101003611E7 ; 8.749345936441438E8 ; 6.471009443516166E8 ; 1.1354391436924875E10 ; 0.0
17 ; 4.355858906426524E7 ; 9.055012961182364E8 ; 6.906034353616527E8 ; 1.222932603056902E10 ; 0.0
18 ; 4.3617758808651626E7 ; 9.379215408705698E8 ; 7.34162024425918E8 ; 1.3134827326687256E10 ; 0.0
19 ; 4.366833237970328E7 ; 9.721953175835229E8 ; 7.777797832345695E8 ; 1.4072748867557825E10 ; 0.0
20 ; 4.372801645123836E7 ; 1.0083226146783552E9 ; 8.214481156142728E8 ; 1.5044944185141348E10 ; 0.0
21 ; 4.3777113453758016E7 ; 1.0463034193560399E9 ; 8.651761320655112E8 ; 1.6053266799819702E10 ; 0.0
22 ; 4.383343445613296E7 ; 1.0861377176417089E9 ; 9.089532455192692E8 ; 1.7099570219175741E10 ; 0.0
23 ; 4.388252606336555E7 ; 1.1278254944323542E9 ; 9.527866799754022E8 ; 1.818570793681745E10 ; 0.0
24 ; 4.393584551689493E7 ; 1.1713667335474167E9 ; 9.966692060387678E8 ; 1.9313533431249805E10 ; 0.0
25 ; 4.398856923260732E7 ; 1.2088896631709788E9 ; 1.0406050515556628E9 ; 2.0484900164797222E10 ; 0.0
26 ; 4.4033902596335515E7 ; 1.2089155521283438E9 ; 1.08459362078827E9 ; 2.16937898279682E10 ; 0.0
27 ; 4.40965563601385E7 ; 1.2089429970923886E9 ; 1.1286275233846054E9 ; 2.2902705380096546E10 ; 0.0
28 ; 4.414689519698699E7 ; 1.2089719781224613E9 ; 1.1727240797447438E9 ; 2.4111648377188934E10 ; 0.0
29 ; 4.420326392221235E7 ; 1.209002474483076E9 ; 1.2168709749417307E9 ; 2.5320620355311394E10 ; 0.0
30 ; 4.425571308706413E7 ; 1.209034464703715E9 ; 1.261074238863943E9 ; 2.652962282979447E10 ; 0.0
31 ; 4.429779638008403E7 ; 1.209067926638864E9 ; 1.3053299519510071E9 ; 2.7738657294498188E10 ; 0.0
32 ; 4.434627940230742E7 ; 1.2091028375279334E9 ; 1.3496277483310912E9 ; 2.894772522113705E10 ; 0.0
33 ; 4.440645903441468E7 ; 1.20913917405475E9 ; 1.3939740277333987E9 ; 3.0156828058664986E10 ; 0.0
34 ; 4.444712304971218E7 ; 1.2091769124063249E9 ; 1.4383804867678134E9 ; 3.1365967232719734E10 ; 0.0
35 ; 4.4490266625380695E7 ; 1.2092160283306181E9 ; 1.4828276098175256E9 ; 3.257514414512606E10 ; 0.0
36 ; 4.4529860072085045E7 ; 1.2092564971930594E9 ; 1.5273178764429064E9 ; 3.378436017345668E10 ; 0.0
37 ; 4.458235808782996E7 ; 1.2092982940315952E9 ; 1.5718477365149915E9 ; 3.499361667064974E10 ; 0.0
38 ; 4.461221218638649E7 ; 1.209341393610071E9 ; 1.6164300946028216E9 ; 3.6202914964681335E10 ; 0.0
39 ; 4.465475376934384E7 ; 1.2093857704697766E9 ; 1.6610423067892082E9 ; 3.7412256358291405E10 ; 0.0
40 ; 4.468989948669645E7 ; 1.2094313989790084E9 ; 1.705697060558552E9 ; 3.8621642128761185E10 ; 0.0
41 ; 4.473134379588896E7 ; 1.2094782533805296E9 ; 1.7503869600452485E9 ; 3.98310735277402E10 ; 0.0
42 ; 4.475752846250582E7 ; 1.209526307836833E9 ; 1.7951183038411374E9 ; 4.104055178112073E10 ; 0.0
43 ; 4.47942953965486E7 ; 1.2095755364731302E9 ; 1.8398758323036432E9 ; 4.225007808895756E10 ; 0.0
44 ; 4.4827751507075824E7 ; 1.209625913418022E9 ; 1.8846701277001917E9 ; 4.345965362543069E10 ; 0.0
45 ; 4.485842063664031E7 ; 1.2096774128418093E9 ; 1.9294978792072675E9 ; 4.466927953884871E10 ; 0.0
46 ; 4.488932318064275E7 ; 1.2097300089924414E9 ; 1.9743562998439078E9 ; 4.587895695169052E10 ; 0.0
47 ; 4.490925500361833E7 ; 1.209783676229094E9 ; 2.0192456230245507E9 ; 4.708868696068296E10 ; 0.0
48 ; 4.492840719705618E7 ; 1.2098383890534105E9 ; 2.064154878028169E9 ; 4.8298470636912056E10 ; 0.0
49 ; 4.4959700947130546E7 ; 1.2098941221384249E9 ; 2.1090832852252252E9 ; 4.950830902596547E10 ; 0.0
50 ; 4.496584869761932E7 ; 1.2099508503552196E9 ; 2.1540429861723557E9 ; 5.07182031481039E10 ; 0.0
51 ; 4.499447911925453E7 ; 1.2100085487973728E9 ; 2.199008834869975E9 ; 5.1928153998459114E10 ; 0.0
52 ; 4.500895089628549E7 ; 1.210067192803256E9 ; 2.2440033139892297E9 ; 5.3138162547256485E10 ; 0.0
53 ; 4.5030305498190925E7 ; 1.2101267579762537E9 ; 2.289012264885515E9 ; 5.434822974005974E10 ; 0.0
54 ; 4.504162929086131E7 ; 1.210187220202989E9 ; 2.334042570383706E9 ; 5.5558356498035995E10 ; 0.0
55 ; 4.505846485028732E7 ; 1.2102485556696262E9 ; 2.379084199674567E9 ; 5.676854371823898E10 ; 0.0
56 ; 4.507675812311709E7 ; 1.21031074087635E9 ; 2.4241426645248547E9 ; 5.797879227390861E10 ; 0.0
57 ; 4.509275348356337E7 ; 1.210373752650096E9 ; 2.4692194226479716E9 ; 5.918910301478496E10 ; 0.0
58 ; 4.510543707582307E7 ; 1.2104375681556349E9 ; 2.514312176131535E9 ; 6.039947676743505E10 ; 0.0
59 ; 4.512262356353502E7 ; 1.2105021649050953E9 ; 2.5594176132073584E9 ; 6.160991433559068E10 ; 0.0
60 ; 4.5137075971883915E7 ; 1.2105675207660155E9 ; 2.6045402367708936E9 ; 6.282041650049578E10 ; 0.0
61 ; 4.515035333972214E7 ; 1.2106336139680176E9 ; 2.6496773127427773E9 ; 6.4030984021261795E10 ; 0.0
62 ; 4.516373905243049E7 ; 1.210700423108191E9 ; 2.6948276660824995E9 ; 6.524161763522981E10 ; 0.0
63 ; 4.5177727611506835E7 ; 1.210767927155276E9 ; 2.73999140513493E9 ; 6.6452318058338005E10 ; 0.0
64 ; 4.519372880767022E7 ; 1.2108361054527252E9 ; 2.785169132746437E9 ; 6.766308598549328E10 ; 0.0
65 ; 4.520020214970291E7 ; 1.2109049377207332E9 ; 2.830362861554107E9 ; 6.8873922090946E10 ; 0.0
66 ; 4.522243060551652E7 ; 1.210974404057312E9 ; 2.87556306370381E9 ; 7.008482702866673E10 ; 0.0
67 ; 4.5235619278857544E7 ; 1.211044484938482E9 ; 2.9207854943093266E9 ; 7.129580143272404E10 ; 0.0
68 ; 4.5234175867575526E7 ; 1.2111151612176664E9 ; 2.9660211135881844E9 ; 7.250684591766252E10 ; 0.0
69 ; 4.525094769281794E7 ; 1.211186414124341E9 ; 3.01125528945576E9 ; 7.371796107888019E10 ; 0.0
70 ; 4.5263589905342385E7 ; 1.211258225262022E9 ; 3.056506237148578E9 ; 7.492914749300453E10 ; 0.0
71 ; 4.527217395428854E7 ; 1.2113305766056466E9 ; 3.1017698270539207E9 ; 7.614040571826656E10 ; 0.0
72 ; 4.527950364025566E7 ; 1.2114034504984033E9 ; 3.147042001008209E9 ; 7.735173629487221E10 ; 0.0
73 ; 4.529222781570355E7 ; 1.2114768296480799E9 ; 3.1923215046484647E9 ; 7.85631397453706E10 ; 0.0
74 ; 4.530444095702907E7 ; 1.211550697122969E9 ; 3.237613732464168E9 ; 7.977461657501869E10 ; 0.0
75 ; 4.531488917780991E7 ; 1.211625036347387E9 ; 3.282918173421197E9 ; 8.098616727214166E10 ; 0.0
76 ; 4.532630635298499E7 ; 1.2116998310968537E9 ; 3.3282330625990067E9 ; 8.219779230848904E10 ; 0.0
77 ; 4.532530148788903E7 ; 1.211775065492972E9 ; 3.3735593689519916E9 ; 8.340949213958589E10 ; 0.0
78 ; 4.530526904747992E7 ; 1.2118507239980493E9 ; 3.4188846704398804E9 ; 8.462126720507886E10 ; 0.0
79 ; 4.524527765473129E7 ; 1.211926791409501E9 ; 3.4641899394873605E9 ; 8.58331179290769E10 ; 0.0
80 ; 4.51868027917902E7 ; 1.212003252854063E9 ; 3.5094352171420918E9 ; 8.70450447204864E10 ; 0.0
81 ; 4.513023935465923E7 ; 1.2120800937818518E9 ; 3.5546220199338818E9 ; 8.825704797334047E10 ; 0.0
82 ; 4.507969190279864E7 ; 1.2121572999602995E9 ; 3.599752259288541E9 ; 8.946912806712231E10 ; 0.0
83 ; 4.5009404788581975E7 ; 1.2122348574679878E9 ; 3.6448319511913395E9 ; 9.068128536708261E10 ; 0.0
84 ; 4.4956735153776884E7 ; 1.2123127526884093E9 ; 3.6898413559799213E9 ; 9.18935202245506E10 ; 0.0
85 ; 4.490030819081415E7 ; 1.212390972303676E9 ; 3.7347980911336985E9 ; 9.310583297723901E10 ; 0.0
86 ; 4.483390439120581E7 ; 1.2124695032881958E9 ; 3.7796983993245125E9 ; 9.43182239495427E10 ; 0.0
87 ; 4.477582295051814E7 ; 1.2125483329023376E9 ; 3.8245323037157183E9 ; 9.553069345283089E10 ; 0.0
88 ; 4.471579556696342E7 ; 1.212627448686096E9 ; 3.8693081266662364E9 ; 9.674324178573323E10 ; 0.0
89 ; 4.465444400516812E7 ; 1.2127068384527793E9 ; 3.9140239222331996E9 ; 9.795586923441933E10 ; 0.0
90 ; 4.4591587159363404E7 ; 1.2127864902827263E9 ; 3.9586783662383676E9 ; 9.91685760728721E10 ; 0.0
91 ; 4.453533938832815E7 ; 1.2128663925170689E9 ; 4.003269953397731E9 ; 1.0038136256315483E11 ; 0.0
92 ; 4.4468161856535055E7 ; 1.2129465337515488E9 ; 4.047805292786059E9 ; 1.015942289556719E11 ; 0.0
93 ; 4.440450686072156E7 ; 1.2130269028303998E9 ; 4.092273454642594E9 ; 1.0280717548942346E11 ; 0.0
94 ; 4.434743655093332E7 ; 1.2131074888403015E9 ; 4.1366779615033154E9 ; 1.0402020239225386E11 ; 0.0
95 ; 4.428032016137205E7 ; 1.2131882811044166E9 ; 4.181025398054249E9 ; 1.0523330988109416E11 ; 0.0
96 ; 4.4225174267045096E7 ; 1.21326926917651E9 ; 4.225305718215621E9 ; 1.0644649816219858E11 ; 0.0
97 ; 4.415764339314425E7 ; 1.2133504428351665E9 ; 4.269530892482666E9 ; 1.0765976743137509E11 ; 0.0
98 ; 4.409838365873505E7 ; 1.2134317920780988E9 ; 4.313688535875811E9 ; 1.0887311787421025E11 ; 0.0
99 ; 4.403102950403061E7 ; 1.213513307116564E9 ; 4.357786919534546E9 ; 1.1008654966628835E11 ; 0.0
100 ; 4.396145050442864E7 ; 1.2135949783698778E9 ; 4.401817949038576E9 ; 1.113000629734049E11 ; 0.0
101 ; 4.389198240980568E7 ; 1.2136767964600394E9 ; 4.445779399543005E9 ; 1.1251365795177478E11 ; 0.0
102 ; 4.3831040307832874E7 ; 1.213758752206467E9 ; 4.48967138195281E9 ; 1.1372733474823482E11 ; 0.0
103 ; 4.376107573224164E7 ; 1.213840836620839E9 ; 4.533502422260643E9 ; 1.1494109350044128E11 ; 0.0
104 ; 4.369916405976589E7 ; 1.2139230409020529E9 ; 4.577263497992885E9 ; 1.1615493433706212E11 ; 0.0
105 ; 4.363828158073251E7 ; 1.2140053564312942E9 ; 4.62096266205265E9 ; 1.1736885737796417E11 ; 0.0
106 ; 4.3569179633990005E7 ; 1.2140877747672176E9 ; 4.664600943633383E9 ; 1.1858286273439546E11 ; 0.0
107 ; 4.350430058037358E7 ; 1.2141702876412444E9 ; 4.708170123267373E9 ; 1.1979695050916267E11 ; 0.0
108 ; 4.34362115949488E7 ; 1.21425288695297E9 ; 4.751674423847747E9 ; 1.2101112079680392E11 ; 0.0
109 ; 4.3364633199324146E7 ; 1.2143355647656856E9 ; 4.795110635442696E9 ; 1.222253736837569E11 ; 0.0
110 ; 4.329586766012818E7 ; 1.21441831330201E9 ; 4.83847526864202E9 ; 1.2343970924852258E11 ; 0.0
111 ; 4.322885117412463E7 ; 1.2145011249396338E9 ; 4.881771136302149E9 ; 1.246541275618246E11 ; 0.0
112 ; 4.315490317904564E7 ; 1.214583992207172E9 ; 4.924999987476274E9 ; 1.2586862868676424E11 ; 0.0
113 ; 4.308698983296755E7 ; 1.2146669077801242E9 ; 4.968154890655319E9 ; 1.270832126789714E11 ; 0.0
114 ; 4.3014499065490216E7 ; 1.214749864476943E9 ; 5.011241880488287E9 ; 1.2829787958675153E11 ; 0.0
115 ; 4.29510397217688E7 ; 1.2148328552552075E9 ; 5.054256379553777E9 ; 1.2951262945122847E11 ; 0.0
116 ; 4.287270724715686E7 ; 1.2149158732078962E9 ; 5.097207419275545E9 ; 1.3072746230648367E11 ; 0.0
117 ; 4.280479809507817E7 ; 1.2149989115597677E9 ; 5.140080126522702E9 ; 1.3194237817969157E11 ; 0.0
118 ; 4.273456821232433E7 ; 1.2150819636638374E9 ; 5.182884924617781E9 ; 1.3315737709125134E11 ; 0.0
119 ; 4.2669524437662825E7 ; 1.2151650229979503E9 ; 5.225619492830105E9 ; 1.3437245905491518E11 ; 0.0
120 ; 4.2590785299063176E7 ; 1.2152480831614542E9 ; 5.268289017267768E9 ; 1.3558762407791313E11 ; 0.0
121 ; 4.251976573677638E7 ; 1.2153311378719635E9 ; 5.310879802566831E9 ; 1.3680287216107458E11 ; 0.0
122 ; 4.2444319413182214E7 ; 1.2154141809622147E9 ; 5.353399568303607E9 ; 1.3801820329894653E11 ; 0.0
123 ; 4.237322922835412E7 ; 1.2154972063770134E9 ; 5.395843887716789E9 ; 1.3923361747990875E11 ; 0.0
124 ; 4.2303143554369405E7 ; 1.2155802081702669E9 ; 5.438217116945144E9 ; 1.4044911468628577E11 ; 0.0
125 ; 4.221937479544839E7 ; 1.2156631805021033E9 ; 5.480520260499513E9 ; 1.4166469489445602E11 ; 0.0
126 ; 4.214860740904912E7 ; 1.2157461176360745E9 ; 5.522739635294961E9 ; 1.4288035807495813E11 ; 0.0
127 ; 4.2077144220673054E7 ; 1.2158290139364395E9 ; 5.56488824270401E9 ; 1.440961041925942E11 ; 0.0
128 ; 4.199380905371475E7 ; 1.2159118638655267E9 ; 5.606965386924683E9 ; 1.4531193320653064E11 ; 0.0
129 ; 4.192343362674123E7 ; 1.215994661981175E9 ; 5.648959195978397E9 ; 1.4652784507039618E11 ; 0.0
130 ; 4.183962064966455E7 ; 1.216077402934249E9 ; 5.690882629605139E9 ; 1.4774383973237735E11 ; 0.0
131 ; 4.175838506344944E7 ; 1.2161600814662275E9 ; 5.732722250254804E9 ; 1.4895991713531158E11 ; 0.0
132 ; 4.167179488080309E7 ; 1.2162426924068627E9 ; 5.7744806353182535E9 ; 1.501760772167778E11 ; 0.0
133 ; 4.157842231132E7 ; 1.2163252306719112E9 ; 5.816152430199057E9 ; 1.5139231990918466E11 ; 0.0
134 ; 4.148197764901321E7 ; 1.2164076912609282E9 ; 5.857730852510377E9 ; 1.5260864513985657E11 ; 0.0
135 ; 4.139086319005163E7 ; 1.2164900692551312E9 ; 5.89921283015939E9 ; 1.538250528311175E11 ; 0.0
136 ; 4.13025061407752E7 ; 1.2165723598153245E9 ; 5.9406036933494425E9 ; 1.5504154290037262E11 ; 0.0
137 ; 4.1212657711906075E7 ; 1.2166545581798882E9 ; 5.981906199490217E9 ; 1.5625811526018796E11 ; 0.0
138 ; 4.1122513437943414E7 ; 1.2167366596628234E9 ; 6.023118857202124E9 ; 1.5747476981836786E11 ; 0.0
139 ; 4.1027808054142565E7 ; 1.216818659651861E9 ; 6.064241370640067E9 ; 1.5869150647803067E11 ; 0.0
140 ; 4.093834436474161E7 ; 1.2169005536066213E9 ; 6.10526917869421E9 ; 1.5990832513768253E11 ; 0.0
141 ; 4.08439678195463E7 ; 1.216982337056834E9 ; 6.146207523058951E9 ; 1.6112522569128915E11 ; 0.0
142 ; 4.075306493648922E7 ; 1.2170640056006074E9 ; 6.187051490878498E9 ; 1.6234220802834598E11 ; 0.0
143 ; 4.066088573702808E7 ; 1.2171455549027524E9 ; 6.227804555814987E9 ; 1.635592720339466E11 ; 0.0
144 ; 4.056302708981087E7 ; 1.2172269806931539E9 ; 6.268465441552015E9 ; 1.6477641758884933E11 ; 0.0
145 ; 4.04860782128285E7 ; 1.2173082787651935E9 ; 6.309028468641827E9 ; 1.6599364456954248E11 ; 0.0
146 ; 4.040652193384854E7 ; 1.2173894449742184E9 ; 6.349514546854655E9 ; 1.6721095284830768E11 ; 0.0
147 ; 4.0330777409887314E7 ; 1.2174704752360566E9 ; 6.389921068788504E9 ; 1.684283422932819E11 ; 0.0
148 ; 4.025070325253109E7 ; 1.217551365525574E9 ; 6.430251846198391E9 ; 1.6964581276851794E11 ; 0.0
149 ; 4.0173952495446704E7 ; 1.21763211187528E9 ; 6.470502549450922E9 ; 1.7086336413404352E11 ; 0.0
150 ; 4.0099983612957634E7 ; 1.2177127103739688E9 ; 6.510676501946369E9 ; 1.720809962459188E11 ; 0.0
151 ; 4.0021511665164895E7 ; 1.2177931571654072E9 ; 6.550776485559327E9 ; 1.7329870895629276E11 ; 0.0
152 ; 3.9941871883395016E7 ; 1.217873448447055E9 ; 6.590797997224492E9 ; 1.7451650211345816E11 ; 0.0
153 ; 3.98672365121491E7 ; 1.2179535804688308E9 ; 6.630739869107887E9 ; 1.757343755619052E11 ; 0.0
154 ; 3.97875768999989E7 ; 1.2180335495319083E9 ; 6.670607105620036E9 ; 1.7695232914237405E11 ; 0.0
155 ; 3.971374380160104E7 ; 1.2181133519875531E9 ; 6.710394682520035E9 ; 1.7817036269190598E11 ; 0.0
156 ; 3.962684373346345E7 ; 1.2181929842359912E9 ; 6.750108426321636E9 ; 1.7938847604389352E11 ; 0.0
157 ; 3.955369529005028E7 ; 1.2182724427253132E9 ; 6.7897352700550995E9 ; 1.8060666902812952E11 ; 0.0
158 ; 3.946565529116144E7 ; 1.218351723950409E9 ; 6.82928896534515E9 ; 1.8182494147085483E11 ; 0.0
159 ; 3.939767296900921E7 ; 1.2184308244519367E9 ; 6.868754620636312E9 ; 1.8304329319480524E11 ; 0.0
160 ; 3.931691350268068E7 ; 1.2185097408153188E9 ; 6.908152293605321E9 ; 1.8426172401925717E11 ; 0.0
161 ; 3.923360793373018E7 ; 1.2185884696697726E9 ; 6.947469207108002E9 ; 1.8548023376007248E11 ; 0.0
162 ; 3.915330736457266E7 ; 1.2186670076873636E9 ; 6.986702815041732E9 ; 1.8669882222974225E11 ; 0.0
163 ; 3.908213092707668E7 ; 1.2187453515820928E9 ; 7.025856122406304E9 ; 1.8791748923742963E11 ; 0.0
164 ; 3.9000910967511326E7 ; 1.2188234981090062E9 ; 7.064938253333381E9 ; 1.8913623458901172E11 ; 0.0
165 ; 3.891255218441775E7 ; 1.2189014440633326E9 ; 7.103939164300892E9 ; 1.9035505808712073E11 ; 0.0
166 ; 3.883564344103205E7 ; 1.2189791862796483E9 ; 7.14285171648531E9 ; 1.9157395953118405E11 ; 0.0
167 ; 3.875585214625806E7 ; 1.2190567216310623E9 ; 7.181687359926342E9 ; 1.927929387174637E11 ; 0.0
168 ; 3.86754938967017E7 ; 1.2191340470284288E9 ; 7.2204432120726E9 ; 1.940119954390948E11 ; 0.0
169 ; 3.859324217444493E7 ; 1.2192111594195821E9 ; 7.259118705969302E9 ; 1.9523112948612323E11 ; 0.0
170 ; 3.850996310854181E7 ; 1.2192880557885933E9 ; 7.297711948143747E9 ; 1.9645034064554282E11 ; 0.0
171 ; 3.84343458354529E7 ; 1.219364733155048E9 ; 7.336221911252289E9 ; 1.9766962870133142E11 ; 0.0
172 ; 3.836096530639684E7 ; 1.2194E9 ; 7.374656257087742E9 ; 1.9888899343448648E11 ; 0.0
173 ; 3.827936631103613E7 ; 1.2194E9 ; 7.413017222394138E9 ; 2.0010839343448648E11 ; 0.0
174 ; 3.820631278514943E7 ; 1.2194E9 ; 7.451296588705174E9 ; 2.0132779343448648E11 ; 0.0
175 ; 3.8139310924410254E7 ; 1.2194E9 ; 7.489502901490324E9 ; 2.0254719343448648E11 ; 0.0
176 ; 3.806828996435508E7 ; 1.2194E9 ; 7.527642212414734E9 ; 2.0376659343448648E11 ; 0.0
177 ; 3.799754425763396E7 ; 1.2194E9 ; 7.565710502379089E9 ; 2.0498599343448648E11 ; 0.0
178 ; 3.7927702435327314E7 ; 1.2194E9 ; 7.6037080466367235E9 ; 2.0620539343448648E11 ; 0.0
179 ; 3.785912436825025E7 ; 1.2194E9 ; 7.641635749072051E9 ; 2.0742479343448648E11 ; 0.0
180 ; 3.778631726578774E7 ; 1.2194E9 ; 7.679494873440301E9 ; 2.0864419343448648E11 ; 0.0
181 ; 3.7724166522910655E7 ; 1.2194E9 ; 7.717281190706089E9 ; 2.0986359343448648E11 ; 0.0
182 ; 3.765174291043622E7 ; 1.2194E9 ; 7.755005357229E9 ; 2.1108299343448648E11 ; 0.0
183 ; 3.7591369329839654E7 ; 1.2194E9 ; 7.792657100139437E9 ; 2.1230239343448648E11 ; 0.0
184 ; 3.7510071654788435E7 ; 1.2194E9 ; 7.830248469469276E9 ; 2.1352179343448648E11 ; 0.0
185 ; 3.744545020835778E7 ; 1.2194E9 ; 7.867758541124064E9 ; 2.1474119343448648E11 ; 0.0
186 ; 3.737939142497411E7 ; 1.2194E9 ; 7.905203991332422E9 ; 2.1596059343448648E11 ; 0.0
187 ; 3.729917180807622E7 ; 1.2194E9 ; 7.942583382757397E9 ; 2.1717999343448648E11 ; 0.0
188 ; 3.723754871619041E7 ; 1.2194E9 ; 7.979882554565473E9 ; 2.1839939343448648E11 ; 0.0
189 ; 3.7175020176893175E7 ; 1.2194E9 ; 8.017120103281663E9 ; 2.1961879343448648E11 ; 0.0
190 ; 3.71057541458923E7 ; 1.2194E9 ; 8.054295123458556E9 ; 2.2083819343448648E11 ; 0.0
191 ; 3.703478177490688E7 ; 1.2194E9 ; 8.091400877604448E9 ; 2.2205759343448648E11 ; 0.0
192 ; 3.6961888867153734E7 ; 1.2194E9 ; 8.128435659379355E9 ; 2.2327699343448648E11 ; 0.0
193 ; 3.689402241976725E7 ; 1.2194E9 ; 8.16539754824651E9 ; 2.2449639343448648E11 ; 0.0
194 ; 3.6821001351964794E7 ; 1.2194E9 ; 8.202291570666277E9 ; 2.2571579343448648E11 ; 0.0
195 ; 3.675296456619687E7 ; 1.2194E9 ; 8.239112572018242E9 ; 2.2693519343448648E11 ; 0.0
196 ; 3.668582969247633E7 ; 1.2194E9 ; 8.275865536584438E9 ; 2.2815459343448648E11 ; 0.0
197 ; 3.6612878118293E7 ; 1.2194E9 ; 8.312551366276915E9 ; 2.2937399343448648E11 ; 0.0
198 ; 3.654226219166207E7 ; 1.19643254854182E9 ; 8.349164244395207E9 ; 2.3059339343448648E11 ; 0.0
199 ; 3.648092444631806E7 ; 1.1195940009788713E9 ; 8.385706506586869E9 ; 2.317898259830283E11 ; 0.0
