CSV File for the Network on Day 186
1 - Minute m 
2 - Power Consumed at minute m 
3 - Power Produced at minute m 
4 - Energy Consumed since the beginning of the day 
5 - Energy Produced since the beginning of the day 
6 - Energy Lost since the beginning of the day 
 
0 ; 6857920.19820012 ; 6.343088610318886E8 ; 0.0 ; 0.0 ; 0.0
1 ; 6901068.895980246 ; 6.352189506725755E8 ; 6857920.19820012 ; 6.343088610318886E8 ; 0.0
2 ; 6936249.357721044 ; 6.379824916736134E8 ; 1.3758989094180366E7 ; 1.269527811704464E9 ; 0.0
3 ; 6980408.751032021 ; 6.425995058392153E8 ; 2.069523845190141E7 ; 1.9075103033780775E9 ; 0.0
4 ; 7044630.877669827 ; 6.490700128021038E8 ; 2.767564720293343E7 ; 2.550109809217293E9 ; 0.0
5 ; 7111772.1135554155 ; 6.573940298840199E8 ; 3.472027808060326E7 ; 3.199179822019397E9 ; 0.0
6 ; 7203443.817058696 ; 6.675715719695626E8 ; 4.183205019415867E7 ; 3.8565738519034166E9 ; 0.0
7 ; 7335234.212894045 ; 6.796026513954597E8 ; 4.903549401121737E7 ; 4.524145423872979E9 ; 0.0
8 ; 7517240.177574366 ; 6.934872778571496E8 ; 5.6370728224111415E7 ; 5.203748075268438E9 ; 0.0
9 ; 7802824.770114824 ; 7.092254583343245E8 ; 6.388796840168578E7 ; 5.897235353125587E9 ; 0.0
10 ; 8234509.2290164195 ; 7.268171970367502E8 ; 7.169079317180061E7 ; 6.606460811459912E9 ; 0.0
11 ; 8919244.161018815 ; 7.462624953713617E8 ; 7.992530240081704E7 ; 7.333278008496662E9 ; 0.0
12 ; 1.0024276279632723E7 ; 7.67561351931224E8 ; 8.884454656183586E7 ; 8.079540503868024E9 ; 0.0
13 ; 1.1100827403567243E7 ; 7.907137625065707E8 ; 9.886882284146857E7 ; 8.847101855799248E9 ; 0.0
14 ; 1.122808135159434E7 ; 8.157197201177108E8 ; 1.0996965024503581E8 ; 9.637815618305819E9 ; 0.0
15 ; 1.12755312652887E7 ; 8.425792150692048E8 ; 1.2119773159663016E8 ; 1.0453535338423529E10 ; 0.0
16 ; 1.1321391360074833E7 ; 8.71292235024326E8 ; 1.3247326286191885E8 ; 1.1296114553492733E10 ; 0.0
17 ; 1.1372722489100106E7 ; 9.018587650984744E8 ; 1.4379465422199368E8 ; 1.216740678851706E10 ; 0.0
18 ; 1.1422669799464472E7 ; 9.342787879699097E8 ; 1.5516737671109378E8 ; 1.3069265553615534E10 ; 0.0
19 ; 1.1470912767191587E7 ; 9.685522840059087E8 ; 1.6659004651055825E8 ; 1.4003544341585443E10 ; 0.0
20 ; 1.1531717912984211E7 ; 1.0046792314022588E9 ; 1.7806095927774984E8 ; 1.4972096625591352E10 ; 0.0
21 ; 1.1578888644161012E7 ; 1.0426596063338577E9 ; 1.8959267719073406E8 ; 1.597677585699361E10 ; 0.0
22 ; 1.1630976045301607E7 ; 1.0824933831141157E9 ; 2.0117156583489507E8 ; 1.7019435463327469E10 ; 0.0
23 ; 1.1682976128115522E7 ; 1.1241805343608346E9 ; 2.128025418801967E8 ; 1.8101928846441586E10 ; 0.0
24 ; 1.1731748620878357E7 ; 1.167721031166275E9 ; 2.2448551800831223E8 ; 1.922610938080242E10 ; 0.0
25 ; 1.179217861571088E7 ; 1.2052430886583142E9 ; 2.362172666291906E8 ; 2.0393830411968697E10 ; 0.0
26 ; 1.1841844070509646E7 ; 1.2052679623937955E9 ; 2.4800944524490148E8 ; 2.159907350062701E10 ; 0.0
27 ; 1.1897119265549753E7 ; 1.205294235677933E9 ; 2.5985128931541112E8 ; 2.2804341463020805E10 ; 0.0
28 ; 1.1949042936405715E7 ; 1.205321875211225E9 ; 2.7174840858096087E8 ; 2.400963569869874E10 ; 0.0
29 ; 1.1995134596565427E7 ; 1.2053508470099926E9 ; 2.836974515173666E8 ; 2.521495757390996E10 ; 0.0
30 ; 1.203857714950689E7 ; 1.205381116560946E9 ; 2.95692586113932E8 ; 2.6420308420919952E10 ; 0.0
31 ; 1.2088142069603156E7 ; 1.2054126489681904E9 ; 3.077311632634389E8 ; 2.76256895374809E10 ; 0.0
32 ; 1.2144842813466163E7 ; 1.2054454090918217E9 ; 3.19819305333042E8 ; 2.883110218644909E10 ; 0.0
33 ; 1.2183792150235415E7 ; 1.20547936167748E9 ; 3.319641481465082E8 ; 3.003654759554091E10 ; 0.0
34 ; 1.223714625654581E7 ; 1.205514471476429E9 ; 3.4414794029674363E8 ; 3.1242026957218388E10 ; 0.0
35 ; 1.2278100494962927E7 ; 1.2055507033559031E9 ; 3.563850865532894E8 ; 3.2447541428694817E10 ; 0.0
36 ; 1.2321688484069604E7 ; 1.2055880223996372E9 ; 3.6866318704825234E8 ; 3.365309213205072E10 ; 0.0
37 ; 1.2362488577837083E7 ; 1.2056263939986272E9 ; 3.8098487553232193E8 ; 3.4858680154450356E10 ; 0.0
38 ; 1.2397526075416028E7 ; 1.2056657839323072E9 ; 3.9334736411015904E8 ; 3.606430654844898E10 ; 0.0
39 ; 1.2441179500391547E7 ; 1.2057061584404135E9 ; 4.0574489018557507E8 ; 3.726997233238129E10 ; 0.0
40 ; 1.247985892135156E7 ; 1.205747484285912E9 ; 4.181860696859666E8 ; 3.84756784908217E10 ; 0.0
41 ; 1.2511818602672623E7 ; 1.2057897288094096E9 ; 4.3066592860731816E8 ; 3.968142597510761E10 ; 0.0
42 ; 1.255551565873368E7 ; 1.2058328599755337E9 ; 4.431777472099908E8 ; 4.088721570391702E10 ; 0.0
43 ; 1.258506858747928E7 ; 1.2058768464117956E9 ; 4.5573326286872447E8 ; 4.2093048563892555E10 ; 0.0
44 ; 1.2607855189738972E7 ; 1.2059216574404693E9 ; 4.6831833145620376E8 ; 4.329892541030435E10 ; 0.0
45 ; 1.2637818443815093E7 ; 1.2059672631040297E9 ; 4.8092618664594275E8 ; 4.450484706774482E10 ; 0.0
46 ; 1.2669875998022158E7 ; 1.2060136341846967E9 ; 4.9356400508975786E8 ; 4.571081433084885E10 ; 0.0
47 ; 1.2690046851608582E7 ; 1.2060607422186184E9 ; 5.0623388108778E8 ; 4.691682796503355E10 ; 0.0
48 ; 1.271522413273846E7 ; 1.2061085595052109E9 ; 5.189239279393886E8 ; 4.812288870725217E10 ; 0.0
49 ; 1.2740545783787582E7 ; 1.2061570591121597E9 ; 5.3163915207212704E8 ; 4.932899726675738E10 ; 0.0
50 ; 1.2755034490412457E7 ; 1.2062062148765547E9 ; 5.443796978559146E8 ; 5.053515432586954E10 ; 0.0
51 ; 1.2779523508966742E7 ; 1.2062560014026074E9 ; 5.571347323463271E8 ; 5.174136054074609E10 ; 0.0
52 ; 1.2794812939145222E7 ; 1.2063063940563745E9 ; 5.699142558552938E8 ; 5.2947616542148705E10 ; 0.0
53 ; 1.2812463438371558E7 ; 1.2063573689578726E9 ; 5.82709068794439E8 ; 5.415392293620508E10 ; 0.0
54 ; 1.2830603042021267E7 ; 1.206408902970952E9 ; 5.955215322328105E8 ; 5.536028030516295E10 ; 0.0
55 ; 1.2851729820694871E7 ; 1.2064609736912553E9 ; 6.083521352748318E8 ; 5.65666892081339E10 ; 0.0
56 ; 1.286475095926445E7 ; 1.2065135594325626E9 ; 6.212038650955267E8 ; 5.777315018182516E10 ; 0.0
57 ; 1.2876184029610898E7 ; 1.2065666392118032E9 ; 6.340686160547911E8 ; 5.897966374125772E10 ; 0.0
58 ; 1.2895869445386386E7 ; 1.206620192732975E9 ; 6.46944800084402E8 ; 6.018623038046952E10 ; 0.0
59 ; 1.2913541226050468E7 ; 1.206674200370196E9 ; 6.598406695297884E8 ; 6.13928505732025E10 ; 0.0
60 ; 1.2933522917079765E7 ; 1.2067286431500878E9 ; 6.727542107558389E8 ; 6.259952477357269E10 ; 0.0
61 ; 1.294045693326434E7 ; 1.2067835027336621E9 ; 6.856877336729187E8 ; 6.380625341672278E10 ; 0.0
62 ; 1.2947512340940468E7 ; 1.2068387613978724E9 ; 6.98628190606183E8 ; 6.501303691945644E10 ; 0.0
63 ; 1.2974640211662507E7 ; 1.2068944020169616E9 ; 7.115757029471235E8 ; 6.621987568085432E10 ; 0.0
64 ; 1.2988857306119336E7 ; 1.206950408043726E9 ; 7.24550343158786E8 ; 6.742677008287128E10 ; 0.0
65 ; 1.3003098613245113E7 ; 1.2070067634908037E9 ; 7.375392004649054E8 ; 6.8633720490915E10 ; 0.0
66 ; 1.3013664825529283E7 ; 1.2070634529120693E9 ; 7.505422990781505E8 ; 6.98407272544058E10 ; 0.0
67 ; 1.3023252193468373E7 ; 1.2071204613842144E9 ; 7.635559639036798E8 ; 7.104779070731787E10 ; 0.0
68 ; 1.3040922061204834E7 ; 1.207177774488581E9 ; 7.765792160971482E8 ; 7.225491116870209E10 ; 0.0
69 ; 1.3050251268782292E7 ; 1.2072353782932963E9 ; 7.89620138158353E8 ; 7.346208894319067E10 ; 0.0
70 ; 1.3062037383822924E7 ; 1.2072932593357592E9 ; 8.026703894271352E8 ; 7.466932432148396E10 ; 0.0
71 ; 1.3080156033584598E7 ; 1.2073514046055093E9 ; 8.157324268109581E8 ; 7.587661758081972E10 ; 0.0
72 ; 1.3092122365996238E7 ; 1.2074098015275142E9 ; 8.288125828445427E8 ; 7.708396898542523E10 ; 0.0
73 ; 1.310382682118107E7 ; 1.2074684379458914E9 ; 8.41904705210539E8 ; 7.829137878695274E10 ; 0.0
74 ; 1.3111853631087635E7 ; 1.207527302108086E9 ; 8.5500853203172E8 ; 7.949884722489864E10 ; 0.0
75 ; 1.312266594379747E7 ; 1.2075863826495173E9 ; 8.681203856628077E8 ; 8.070637452700673E10 ; 0.0
76 ; 1.3130118404434323E7 ; 1.2076456685786958E9 ; 8.812430516066052E8 ; 8.191396090965625E10 ; 0.0
77 ; 1.3142525471909592E7 ; 1.2077051492628243E9 ; 8.943731700110395E8 ; 8.312160657823494E10 ; 0.0
78 ; 1.3143156928990569E7 ; 1.2077648144138765E9 ; 9.075156954829491E8 ; 8.432931172749776E10 ; 0.0
79 ; 1.3137990969117576E7 ; 1.2078246540751548E9 ; 9.206588524119397E8 ; 8.553707654191164E10 ; 0.0
80 ; 1.3136142158511601E7 ; 1.2078846586083224E9 ; 9.337968433810573E8 ; 8.674490119598679E10 ; 0.0
81 ; 1.3121285285530401E7 ; 1.2079448186809058E9 ; 9.469329855395689E8 ; 8.795278585459511E10 ; 0.0
82 ; 1.3126604027847096E7 ; 1.2080051252542558E9 ; 9.600542708250993E8 ; 8.916073067327602E10 ; 0.0
83 ; 1.3116547401844004E7 ; 1.2080655695719645E9 ; 9.731808748529464E8 ; 9.036873579853027E10 ; 0.0
84 ; 1.3113806716160428E7 ; 1.2081261431487207E9 ; 9.862974222547904E8 ; 9.157680136810223E10 ; 0.0
85 ; 1.3112219939249247E7 ; 1.208186837759602E9 ; 9.994112289709508E8 ; 9.278492751125096E10 ; 0.0
86 ; 1.3101371032246742E7 ; 1.2082476454297829E9 ; 1.0125234489102001E9 ; 9.399311434901056E10 ; 0.0
87 ; 1.3098416203911398E7 ; 1.2083085584246528E9 ; 1.0256248199424468E9 ; 9.520136199444034E10 ; 0.0
88 ; 1.3096611984439585E7 ; 1.2083695692403316E9 ; 1.0387232361463583E9 ; 9.640967055286499E10 ; 0.0
89 ; 1.3088955043083075E7 ; 1.2084306705945663E9 ; 1.0518198481307979E9 ; 9.761804012210532E10 ; 0.0
90 ; 1.3085592193787623E7 ; 1.2084918554180017E9 ; 1.0649088031738809E9 ; 9.882647079269989E10 ; 0.0
91 ; 1.307808980573369E7 ; 1.208553116845804E9 ; 1.0779943953676686E9 ; 1.0003496264811789E11 ; 0.0
92 ; 1.3067092193590969E7 ; 1.2086144482096367E9 ; 1.0910724851734023E9 ; 1.012435157649637E11 ; 0.0
93 ; 1.3067020248917261E7 ; 1.2086758430299644E9 ; 1.1041395773669932E9 ; 1.0245213021317334E11 ; 0.0
94 ; 1.3059679314128296E7 ; 1.2087372950086775E9 ; 1.1172065976159105E9 ; 1.0366080605620331E11 ; 0.0
95 ; 1.3046762496014014E7 ; 1.2087987980220287E9 ; 1.130266276930039E9 ; 1.0486954335121199E11 ; 0.0
96 ; 1.3038030128677456E7 ; 1.2088603461138623E9 ; 1.143313039426053E9 ; 1.0607834214923402E11 ; 0.0
97 ; 1.3031021753926678E7 ; 1.208921933489129E9 ; 1.1563510695547304E9 ; 1.0728720249534789E11 ; 0.0
98 ; 1.302326986808123E7 ; 1.2089835545076756E9 ; 1.1693820913086572E9 ; 1.0849612442883702E11 ; 0.0
99 ; 1.3010231029776303E7 ; 1.2090452036782944E9 ; 1.1824053611767385E9 ; 1.097051079833447E11 ; 0.0
100 ; 1.300837964443789E7 ; 1.2091068756530259E9 ; 1.1954155922065148E9 ; 1.10914153187023E11 ; 0.0
101 ; 1.299154674084841E7 ; 1.2091685652217019E9 ; 1.2084239718509526E9 ; 1.1212326006267603E11 ; 0.0
102 ; 1.2982942358711578E7 ; 1.2092302673067193E9 ; 1.221415518591801E9 ; 1.1333242862789772E11 ; 0.0
103 ; 1.297596806174019E7 ; 1.209291976958035E9 ; 1.2343984609505124E9 ; 1.1454165889520444E11 ; 0.0
104 ; 1.295384669398824E7 ; 1.209353689348373E9 ; 1.2473744290122526E9 ; 1.1575095087216248E11 ; 0.0
105 ; 1.2949485808464257E7 ; 1.2094153997686348E9 ; 1.260328275706241E9 ; 1.1696030456151085E11 ; 0.0
106 ; 1.2943404303950159E7 ; 1.209477103623501E9 ; 1.2732777615147052E9 ; 1.1816971996127948E11 ; 0.0
107 ; 1.2932978400952237E7 ; 1.209538796427223E9 ; 1.2862211658186553E9 ; 1.1937919706490298E11 ; 0.0
108 ; 1.2914045132229164E7 ; 1.2096004737995872E9 ; 1.2991541442196076E9 ; 1.205887358613302E11 ; 0.0
109 ; 1.2908970229120309E7 ; 1.2096621314620545E9 ; 1.3120681893518367E9 ; 1.2179833633512979E11 ; 0.0
110 ; 1.2889743486706074E7 ; 1.2097237652340567E9 ; 1.324977159580957E9 ; 1.2300799846659184E11 ; 0.0
111 ; 1.2875471899568355E7 ; 1.2097853710294528E9 ; 1.337866903067663E9 ; 1.242177222318259E11 ; 0.0
112 ; 1.2859172068897888E7 ; 1.2098469448531313E9 ; 1.3507423749672313E9 ; 1.2542750760285535E11 ; 0.0
113 ; 1.2848989212542973E7 ; 1.2099084827977548E9 ; 1.3636015470361292E9 ; 1.2663735454770848E11 ; 0.0
114 ; 1.28358244042814E7 ; 1.2099699810406418E9 ; 1.3764505362486722E9 ; 1.2784726303050624E11 ; 0.0
115 ; 1.2825641168613337E7 ; 1.2100314358407753E9 ; 1.3892863606529536E9 ; 1.2905723301154688E11 ; 0.0
116 ; 1.2805051127886366E7 ; 1.2100928435359402E9 ; 1.402112001821567E9 ; 1.3026726444738765E11 ; 0.0
117 ; 1.2792125267252922E7 ; 1.2101542005399735E9 ; 1.4149170529494534E9 ; 1.3147735729092358E11 ; 0.0
118 ; 1.2782446212711383E7 ; 1.2102155033401334E9 ; 1.4277091782167063E9 ; 1.3268751149146356E11 ; 0.0
119 ; 1.2763998246503739E7 ; 1.2102767484945724E9 ; 1.4404916244294176E9 ; 1.338977269948037E11 ; 0.0
120 ; 1.2750277613074988E7 ; 1.210337932629918E9 ; 1.4532556226759214E9 ; 1.3510800374329826E11 ; 0.0
121 ; 1.2730552217269083E7 ; 1.2103990524389486E9 ; 1.4660059002889965E9 ; 1.3631834167592818E11 ; 0.0
122 ; 1.271239888225023E7 ; 1.210460104678367E9 ; 1.4787364525062656E9 ; 1.3752874072836713E11 ; 0.0
123 ; 1.2701483855003675E7 ; 1.2105210861666632E9 ; 1.491448851388516E9 ; 1.387392008330455E11 ; 0.0
124 ; 1.2684437283269914E7 ; 1.210581993782064E9 ; 1.5041503352435195E9 ; 1.3994972191921216E11 ; 0.0
125 ; 1.266157747030713E7 ; 1.210642824460567E9 ; 1.5168347725267894E9 ; 1.4116030391299423E11 ; 0.0
126 ; 1.2653244771140624E7 ; 1.2107035751940506E9 ; 1.5294963499970965E9 ; 1.423709467374548E11 ; 0.0
127 ; 1.2634265936191443E7 ; 1.210764243028462E9 ; 1.542149594768237E9 ; 1.4358165031264886E11 ; 0.0
128 ; 1.26160652084626E7 ; 1.2108248250620785E9 ; 1.5547838607044287E9 ; 1.4479241455567734E11 ; 0.0
129 ; 1.2594278724472005E7 ; 1.2108853184438357E9 ; 1.5673999259128914E9 ; 1.460032393807394E11 ; 0.0
130 ; 1.2570220942601515E7 ; 1.2109457203717244E9 ; 1.5799942046373634E9 ; 1.4721412469918326E11 ; 0.0
131 ; 1.2543334508213691E7 ; 1.2110060280912485E9 ; 1.5925644255799649E9 ; 1.48425070419555E11 ; 0.0
132 ; 1.2504718868352296E7 ; 1.2110662388939474E9 ; 1.6051077600881786E9 ; 1.4963607644764624E11 ; 0.0
133 ; 1.2477398461377336E7 ; 1.2111263501159716E9 ; 1.617612478956531E9 ; 1.508471426865402E11 ; 0.0
134 ; 1.2437168733469103E7 ; 1.2111863591367185E9 ; 1.6300898774179084E9 ; 1.5205826903665616E11 ; 0.0
135 ; 1.241069663867907E7 ; 1.2112462633775191E9 ; 1.6425270461513774E9 ; 1.5326945539579288E11 ; 0.0
136 ; 1.2374840111917356E7 ; 1.211306060300377E9 ; 1.6549377427900565E9 ; 1.544807016591704E11 ; 0.0
137 ; 1.234165386379041E7 ; 1.2113657474067533E9 ; 1.6673125829019737E9 ; 1.556920077194708E11 ; 0.0
138 ; 1.230204832633044E7 ; 1.2114253222364037E9 ; 1.6796542367657642E9 ; 1.5690337346687753E11 ; 0.0
139 ; 1.2270175655658318E7 ; 1.2114847823662546E9 ; 1.6919562850920947E9 ; 1.5811479878911392E11 ; 0.0
140 ; 1.223663413265433E7 ; 1.211544125409326E9 ; 1.704226460747753E9 ; 1.5932628357148016E11 ; 0.0
141 ; 1.2199443655785821E7 ; 1.2116033490136957E9 ; 1.7164630948804073E9 ; 1.605378276968895E11 ; 0.0
142 ; 1.2163853389112875E7 ; 1.2116624508614986E9 ; 1.7286625385361931E9 ; 1.617494310459032E11 ; 0.0
143 ; 1.2133519604502304E7 ; 1.2117214286679692E9 ; 1.740826391925306E9 ; 1.629610934967647E11 ; 0.0
144 ; 1.209745319220282E7 ; 1.2117802801805172E9 ; 1.7529599115298083E9 ; 1.6417281492543268E11 ; 0.0
145 ; 1.2080575045229346E7 ; 1.2118390031778388E9 ; 1.765057364722011E9 ; 1.653845952056132E11 ; 0.0
146 ; 1.2059598198050238E7 ; 1.2118975954690602E9 ; 1.7771379397672405E9 ; 1.6659643420879102E11 ; 0.0
147 ; 1.2040580545276847E7 ; 1.2119560548929148E9 ; 1.7891975379652908E9 ; 1.6780833180426007E11 ; 0.0
148 ; 1.2021677217493396E7 ; 1.2120143793169508E9 ; 1.8012381185105677E9 ; 1.6902028785915298E11 ; 0.0
149 ; 1.2002457497538313E7 ; 1.212072566636766E9 ; 1.813259795728061E9 ; 1.7023230223846994E11 ; 0.0
150 ; 1.1984531419856977E7 ; 1.2121306147752728E9 ; 1.8252622532255993E9 ; 1.7144437480510672E11 ; 0.0
151 ; 1.196307730915127E7 ; 1.2121885216819906E9 ; 1.8372467846454563E9 ; 1.72656505419882E11 ; 0.0
152 ; 1.1947384738161368E7 ; 1.2122462853323627E9 ; 1.8492098619546075E9 ; 1.7386869394156396E11 ; 0.0
153 ; 1.1916583497118369E7 ; 1.2123039037270985E9 ; 1.8611572466927688E9 ; 1.7508094022689633E11 ; 0.0
154 ; 1.1903861564489283E7 ; 1.2123613748915412E9 ; 1.8730738301898873E9 ; 1.7629324413062344E11 ; 0.0
155 ; 1.188536791559495E7 ; 1.2124186968750553E9 ; 1.8849776917543766E9 ; 1.7750560550551498E11 ; 0.0
156 ; 1.1865534287165303E7 ; 1.2124758677504396E9 ; 1.8968630596699717E9 ; 1.7871802420239005E11 ; 0.0
157 ; 1.1850053105702572E7 ; 1.2125328856133592E9 ; 1.908728593957137E9 ; 1.7993050007014047E11 ; 0.0
158 ; 1.1826101998397078E7 ; 1.2125897485817988E9 ; 1.9205786470628397E9 ; 1.8114303295575385E11 ; 0.0
159 ; 1.180830715671086E7 ; 1.212646454795535E9 ; 1.9324047490612369E9 ; 1.8235562270433563E11 ; 0.0
160 ; 1.1786352909545021E7 ; 1.212703002415628E9 ; 1.9442130562179477E9 ; 1.8356826915913116E11 ; 0.0
161 ; 1.1770515900585707E7 ; 1.2127593896239302E9 ; 1.9559994091274927E9 ; 1.8478097216154678E11 ; 0.0
162 ; 1.1742950456636114E7 ; 1.2128156146226146E9 ; 1.9677699250280783E9 ; 1.8599373155117072E11 ; 0.0
163 ; 1.1722542220218726E7 ; 1.2128716756337168E9 ; 1.9795128754847145E9 ; 1.8720654716579333E11 ; 0.0
164 ; 1.1697737571132325E7 ; 1.2129275708986955E9 ; 1.9912354177049332E9 ; 1.8841941884142706E11 ; 0.0
165 ; 1.1685441869048353E7 ; 1.2129832986780064E9 ; 2.0029331552760656E9 ; 1.8963234641232574E11 ; 0.0
166 ; 1.166464275642329E7 ; 1.2130388572506938E9 ; 2.014618597145114E9 ; 1.9084532971100375E11 ; 0.0
167 ; 1.1644716685151907E7 ; 1.213094244913993E9 ; 2.0262832399015372E9 ; 1.9205836856825446E11 ; 0.0
168 ; 1.1621975330942173E7 ; 1.2131494599829493E9 ; 2.037927956586689E9 ; 1.9327146281316846E11 ; 0.0
169 ; 1.1603037143543154E7 ; 1.2132045007900486E9 ; 2.0495499319176311E9 ; 1.944846122731514E11 ; 0.0
170 ; 1.158308415748784E7 ; 1.2132593656848617E9 ; 2.0611529690611744E9 ; 1.9569781677394144E11 ; 0.0
171 ; 1.1558996581536885E7 ; 1.2133140530336993E9 ; 2.0727360532186623E9 ; 1.969110761396263E11 ; 0.0
172 ; 1.1539329320345242E7 ; 1.2133685612192814E9 ; 2.084295049800199E9 ; 1.9812439019266E11 ; 0.0
173 ; 1.1520425524364457E7 ; 1.213422888640416E9 ; 2.0958343791205442E9 ; 1.9933775875387927E11 ; 0.0
174 ; 1.1504749846873501E7 ; 1.213477033711688E9 ; 2.1073548046449087E9 ; 2.0055118164251968E11 ; 0.0
175 ; 1.1487611085895363E7 ; 1.2135309948631623E9 ; 2.1188595544917822E9 ; 2.0176465867623138E11 ; 0.0
176 ; 1.147419315198088E7 ; 1.2135847705400927E9 ; 2.1303471655776775E9 ; 2.0297818967109454E11 ; 0.0
177 ; 1.1459391553610679E7 ; 1.2136383592026439E9 ; 2.1418213587296584E9 ; 2.0419177444163464E11 ; 0.0
178 ; 1.1445822115747659E7 ; 1.21369175932562E9 ; 2.153280750283269E9 ; 2.0540541280083728E11 ; 0.0
179 ; 1.1434449652344216E7 ; 1.2137449693982053E9 ; 2.1647265723990164E9 ; 2.066191045601629E11 ; 0.0
180 ; 1.1417671641418662E7 ; 1.2137979879237113E9 ; 2.1761610220513606E9 ; 2.078328495295611E11 ; 0.0
181 ; 1.1402578197449563E7 ; 1.2138508134193335E9 ; 2.187578693692779E9 ; 2.090466475174848E11 ; 0.0
182 ; 1.138819946555765E7 ; 1.213903444415915E9 ; 2.1989812718902287E9 ; 2.1026049833090414E11 ; 0.0
183 ; 1.1373923305491606E7 ; 1.2139558794577208E9 ; 2.2103694713557863E9 ; 2.1147440177532007E11 ; 0.0
184 ; 1.1362371746535812E7 ; 1.214008117102214E9 ; 2.221743394661278E9 ; 2.126883576547778E11 ; 0.0
185 ; 1.1340725927239437E7 ; 1.2140601559198477E9 ; 2.2331057664078135E9 ; 2.1390236577188E11 ; 0.0
186 ; 1.1328079245361635E7 ; 1.2141119944938555E9 ; 2.244446492335053E9 ; 2.1511642592779987E11 ; 0.0
187 ; 1.1306100691283962E7 ; 1.2141636314200537E9 ; 2.255774571580415E9 ; 2.1633053792229373E11 ; 0.0
188 ; 1.1298071933556784E7 ; 1.2142150653066497E9 ; 2.267080672271699E9 ; 2.1754470155371378E11 ; 0.0
189 ; 1.1285444935539812E7 ; 1.2142662947740543E9 ; 2.2783787442052555E9 ; 2.1875891661902042E11 ; 0.0
190 ; 1.1268954586776061E7 ; 1.2143173184547029E9 ; 2.289664189140795E9 ; 2.1997318291379446E11 ; 0.0
191 ; 1.1253231242957402E7 ; 1.214368134992881E9 ; 2.3009331437275715E9 ; 2.2118750023224918E11 ; 0.0
192 ; 1.1238544859669162E7 ; 1.2144187430445554E9 ; 2.312186374970529E9 ; 2.2240186836724207E11 ; 0.0
193 ; 1.12206589183298E7 ; 1.2144691412772117E9 ; 2.3234249198301983E9 ; 2.2361628711028662E11 ; 0.0
194 ; 1.1209312531319264E7 ; 1.2145193283696966E9 ; 2.334645578748528E9 ; 2.2483075625156384E11 ; 0.0
195 ; 1.119173874374928E7 ; 1.2145693030120642E9 ; 2.345854891279847E9 ; 2.2604527557993353E11 ; 0.0
