CSV File for the Network on Day 346
1 - Minute m 
2 - Power Consumed at minute m 
3 - Power Produced at minute m 
4 - Energy Consumed since the beginning of the day 
5 - Energy Produced since the beginning of the day 
6 - Energy Lost since the beginning of the day 
 
0 ; 3.863306602521329E7 ; 6.357324939017841E8 ; 0.0 ; 0.0 ; 0.0
1 ; 3.8666609365762E7 ; 6.366434467619327E8 ; 3.863306602521329E7 ; 6.357324939017841E8 ; 0.0
2 ; 3.870995487259314E7 ; 6.39407784384889E8 ; 7.72996753909753E7 ; 1.2723759406637168E9 ; 0.0
3 ; 3.875848744234009E7 ; 6.440255208816082E8 ; 1.1600963026356843E8 ; 1.911783725048606E9 ; 0.0
4 ; 3.881402181548747E7 ; 6.504966688705566E8 ; 1.5476811770590854E8 ; 2.555809245930214E9 ; 0.0
5 ; 3.888891469742161E7 ; 6.5882123941714E8 ; 1.93582139521396E8 ; 3.2063059148007708E9 ; 0.0
6 ; 3.897640962148009E7 ; 6.68999241979716E8 ; 2.3247105421881762E8 ; 3.865127154217911E9 ; 0.0
7 ; 3.9113381873308025E7 ; 6.810306843627948E8 ; 2.714474638402977E8 ; 4.534126396197627E9 ; 0.0
8 ; 3.929520784718922E7 ; 6.949155726779749E8 ; 3.105608457136057E8 ; 5.215157080560422E9 ; 0.0
9 ; 3.957591661815618E7 ; 7.106539113130627E8 ; 3.4985605356079495E8 ; 5.910072653238397E9 ; 0.0
10 ; 4.0015803458095804E7 ; 7.282457029097478E8 ; 3.8943197017895114E8 ; 6.620726564551459E9 ; 0.0
11 ; 4.0696395164203666E7 ; 7.476909483500999E8 ; 4.2944777363704693E8 ; 7.348972267461207E9 ; 0.0
12 ; 4.181169343078371E7 ; 7.689896467520492E8 ; 4.701441688012506E8 ; 8.096663215811307E9 ; 0.0
13 ; 4.287088046105365E7 ; 7.921417954739058E8 ; 5.1195586223203427E8 ; 8.865652862563356E9 ; 0.0
14 ; 4.300386119494617E7 ; 8.171473901278641E8 ; 5.548267426930879E8 ; 9.657794658037262E9 ; 0.0
15 ; 4.3050706726299085E7 ; 8.440064246023251E8 ; 5.978306038880341E8 ; 1.0474942048165127E10 ; 0.0
16 ; 4.310106783384486E7 ; 8.727188910927788E8 ; 6.408813106143332E8 ; 1.1318948472767452E10 ; 0.0
17 ; 4.315294758476466E7 ; 9.032847801408676E8 ; 6.83982378448178E8 ; 1.2191667363860231E10 ; 0.0
18 ; 4.319541368664794E7 ; 9.357040806811855E8 ; 7.271353260329428E8 ; 1.3094952144001099E10 ; 0.0
19 ; 4.325289460244543E7 ; 9.699767800952661E8 ; 7.703307397195907E8 ; 1.4030656224682283E10 ; 0.0
20 ; 4.329835541314746E7 ; 1.0061028642721542E9 ; 8.135836343220361E8 ; 1.500063300477755E10 ; 0.0
21 ; 4.334637723522298E7 ; 1.0440823176748924E9 ; 8.568819897351836E8 ; 1.6006735869049704E10 ; 0.0
22 ; 4.340250266802033E7 ; 1.0839151234122066E9 ; 9.002283669704065E8 ; 1.7050818186724596E10 ; 0.0
23 ; 4.3456643148016214E7 ; 1.1256012633146505E9 ; 9.436308696384269E8 ; 1.8134733310136803E10 ; 0.0
24 ; 4.3503947462633416E7 ; 1.1691407180144374E9 ; 9.870875127864431E8 ; 1.9260334573451454E10 ; 0.0
25 ; 4.355712535945062E7 ; 1.2066617124172947E9 ; 1.0305914602490765E9 ; 2.0429475291465893E10 ; 0.0
26 ; 4.360356136423734E7 ; 1.2066855120087452E9 ; 1.0741485856085272E9 ; 2.1636137003883186E10 ; 0.0
27 ; 4.365403389564538E7 ; 1.2067107100898418E9 ; 1.1177521469727645E9 ; 2.284282251589193E10 ; 0.0
28 ; 4.3700201770689115E7 ; 1.2067372833447995E9 ; 1.1614061808684099E9 ; 2.4049533225981773E10 ; 0.0
29 ; 4.374704195329052E7 ; 1.2067652076874716E9 ; 1.205106382639099E9 ; 2.5256270509326572E10 ; 0.0
30 ; 4.380145845837084E7 ; 1.2067944583477128E9 ; 1.2488534245923893E9 ; 2.6463035717014046E10 ; 0.0
31 ; 4.3851282254173666E7 ; 1.2068250099565177E9 ; 1.2926548830507603E9 ; 2.766983017536176E10 ; 0.0
32 ; 4.3895177120619506E7 ; 1.206856836629395E9 ; 1.336506165304934E9 ; 2.8876655185318275E10 ; 0.0
33 ; 4.394215769124586E7 ; 1.2068899120475006E9 ; 1.3804013424255536E9 ; 3.008351202194767E10 ; 0.0
34 ; 4.399128023222327E7 ; 1.2069242095361097E9 ; 1.4243435001167994E9 ; 3.129040193399517E10 ; 0.0
35 ; 4.402457120272888E7 ; 1.2069597021400714E9 ; 1.4683347803490226E9 ; 3.249732614353128E10 ; 0.0
36 ; 4.4064170137800656E7 ; 1.206996362695946E9 ; 1.5123593515517516E9 ; 3.3704285845671352E10 ; 0.0
37 ; 4.4107971170527086E7 ; 1.2070341639005797E9 ; 1.5564235216895523E9 ; 3.49112822083673E10 ; 0.0
38 ; 4.41451363528149E7 ; 1.207073078375935E9 ; 1.6005314928600793E9 ; 3.611831637226788E10 ; 0.0
39 ; 4.418045175553284E7 ; 1.2071130787300396E9 ; 1.6446766292128942E9 ; 3.732538945064382E10 ; 0.0
40 ; 4.421697461440265E7 ; 1.207154137613968E9 ; 1.688857080968427E9 ; 3.853250252937386E10 ; 0.0
41 ; 4.425073614246461E7 ; 1.2071962277748163E9 ; 1.7330740555828295E9 ; 3.973965666698783E10 ; 0.0
42 ; 4.42756258585642E7 ; 1.2072393221046677E9 ; 1.777324791725294E9 ; 4.094685289476265E10 ; 0.0
43 ; 4.430755344744564E7 ; 1.2072833936855817E9 ; 1.8216004175838583E9 ; 4.215409221686732E10 ; 0.0
44 ; 4.433189502469857E7 ; 1.2073284158306787E9 ; 1.865907971031304E9 ; 4.33613756105529E10 ; 0.0
45 ; 4.4362098308084436E7 ; 1.2073743621214075E9 ; 1.9102398660560024E9 ; 4.456870402638358E10 ; 0.0
46 ; 4.439212910158609E7 ; 1.2074212064411156E9 ; 1.9546019643640869E9 ; 4.577607838850499E10 ; 0.0
47 ; 4.44066382533215E7 ; 1.2074689230050576E9 ; 1.998994093465673E9 ; 4.6983499594946106E10 ; 0.0
48 ; 4.4425074167544216E7 ; 1.2075174863869872E9 ; 2.0434007317189944E9 ; 4.8190968517951164E10 ; 0.0
49 ; 4.444917967648855E7 ; 1.2075668715425043E9 ; 2.0878258058865385E9 ; 4.939848600433815E10 ; 0.0
50 ; 4.446220413338435E7 ; 1.2076170538293166E9 ; 2.1322749855630271E9 ; 5.060605287588065E10 ; 0.0
51 ; 4.447669440588947E7 ; 1.2076680090246015E9 ; 2.1767371896964116E9 ; 5.181366992970997E10 ; 0.0
52 ; 4.4492413991080664E7 ; 1.2077197133396416E9 ; 2.221213884102301E9 ; 5.302133793873457E10 ; 0.0
53 ; 4.450914779922697E7 ; 1.207772143431915E9 ; 2.265706298093382E9 ; 5.422905765207422E10 ; 0.0
54 ; 4.4510669776205264E7 ; 1.2078252764148264E9 ; 2.3102154458926086E9 ; 5.5436829795506134E10 ; 0.0
55 ; 4.452579853157583E7 ; 1.2078790898652396E9 ; 2.3547261156688137E9 ; 5.664465507192096E10 ; 0.0
56 ; 4.4541027459764205E7 ; 1.2079335618290055E9 ; 2.3992519142003894E9 ; 5.78525341617862E10 ; 0.0
57 ; 4.455054567900238E7 ; 1.2079886708246303E9 ; 2.4437929416601534E9 ; 5.9060467723615204E10 ; 0.0
58 ; 4.456823051104521E7 ; 1.2080443958452647E9 ; 2.4883434873391557E9 ; 6.0268456394439835E10 ; 0.0
59 ; 4.457529941934623E7 ; 1.2081007163591542E9 ; 2.5329117178502007E9 ; 6.14765007902851E10 ; 0.0
60 ; 4.4580633115709096E7 ; 1.2081576123087044E9 ; 2.577487017269547E9 ; 6.268460150664426E10 ; 0.0
61 ; 4.459826412482446E7 ; 1.208215064108299E9 ; 2.6220676503852563E9 ; 6.389275911895296E10 ; 0.0
62 ; 4.461107800133996E7 ; 1.2082730526410027E9 ; 2.666665914510081E9 ; 6.510097418306126E10 ; 0.0
63 ; 4.461848944476886E7 ; 1.2083315592542677E9 ; 2.7112769925114207E9 ; 6.6309247235702255E10 ; 0.0
64 ; 4.4628590620379925E7 ; 1.208390565754769E9 ; 2.7558954819561896E9 ; 6.751757879495652E10 ; 0.0
65 ; 4.463502816688128E7 ; 1.208450054402464E9 ; 2.8005240725765696E9 ; 6.872596936071129E10 ; 0.0
66 ; 4.464318880740682E7 ; 1.208510007903985E9 ; 2.8451591007434506E9 ; 6.993441941511375E10 ; 0.0
67 ; 4.4659146430427104E7 ; 1.2085704094054523E9 ; 2.8898022895508575E9 ; 7.114292942301775E10 ; 0.0
68 ; 4.4662275870325446E7 ; 1.208631242484797E9 ; 2.9344614359812846E9 ; 7.23514998324232E10 ; 0.0
69 ; 4.467407295350821E7 ; 1.2086924911436634E9 ; 2.97912371185161E9 ; 7.3560131074908E10 ; 0.0
70 ; 4.468223547233211E7 ; 1.2087541397989743E9 ; 3.0237977848051186E9 ; 7.476882356605167E10 ; 0.0
71 ; 4.4678580062623024E7 ; 1.208816173274211E9 ; 3.0684800202774506E9 ; 7.597757770585065E10 ; 0.0
72 ; 4.468673104302639E7 ; 1.2088785767904775E9 ; 3.1131586003400736E9 ; 7.718639387912486E10 ; 0.0
73 ; 4.469102766191583E7 ; 1.2089413359573991E9 ; 3.1578453313831E9 ; 7.839527245591534E10 ; 0.0
74 ; 4.470251696419774E7 ; 1.2090044367638993E9 ; 3.202536359045016E9 ; 7.960421379187274E10 ; 0.0
75 ; 4.4700833117416695E7 ; 1.2090678655689054E9 ; 3.2472388760092134E9 ; 8.081321822863664E10 ; 0.0
76 ; 4.470568488632234E7 ; 1.209131609092016E9 ; 3.2919397091266303E9 ; 8.202228609420555E10 ; 0.0
77 ; 4.471119615277437E7 ; 1.20919565440417E9 ; 3.336645394012953E9 ; 8.323141770329756E10 ; 0.0
78 ; 4.4700254041197896E7 ; 1.2092599889183416E9 ; 3.381356590165727E9 ; 8.444061335770174E10 ; 0.0
79 ; 4.4691889186583504E7 ; 1.2093246003802943E9 ; 3.426056844206925E9 ; 8.564987334662007E10 ; 0.0
80 ; 4.468358784829944E7 ; 1.2093894768594153E9 ; 3.4707487333935084E9 ; 8.685919794700037E10 ; 0.0
81 ; 4.467007731868239E7 ; 1.2094546067396474E9 ; 3.515432321241808E9 ; 8.806858742385979E10 ; 0.0
82 ; 4.466218118698912E7 ; 1.2095199787105458E9 ; 3.56010239856049E9 ; 8.927804203059944E10 ; 0.0
83 ; 4.464805875744217E7 ; 1.2095855817584646E9 ; 3.6047645797474794E9 ; 9.048756200930998E10 ; 0.0
84 ; 4.464033101632499E7 ; 1.209651405157893E9 ; 3.6494126385049214E9 ; 9.169714759106845E10 ; 0.0
85 ; 4.463006877309809E7 ; 1.2097174384629505E9 ; 3.6940529695212464E9 ; 9.290679899622635E10 ; 0.0
86 ; 4.4614935917383164E7 ; 1.2097836714990497E9 ; 3.7386830382943444E9 ; 9.41165164346893E10 ; 0.0
87 ; 4.460181222392778E7 ; 1.209850094354735E9 ; 3.7832979742117276E9 ; 9.532630010618835E10 ; 0.0
88 ; 4.458796125772725E7 ; 1.209916697373703E9 ; 3.8278997864356556E9 ; 9.653615020054309E10 ; 0.0
89 ; 4.4573064781430244E7 ; 1.20998347114701E9 ; 3.8724877476933827E9 ; 9.77460668979168E10 ; 0.0
90 ; 4.456139946297235E7 ; 1.210050406505467E9 ; 3.917060812474813E9 ; 9.89560503690638E10 ; 0.0
91 ; 4.4556592693257354E7 ; 1.2101174945122294E9 ; 3.961622211937785E9 ; 1.0016610077556926E11 ; 0.0
92 ; 4.4529950447518826E7 ; 1.2101847264555798E9 ; 4.0061788046310425E9 ; 1.0137621827008148E11 ; 0.0
93 ; 4.4525461153261155E7 ; 1.2102520938419023E9 ; 4.0507087550785613E9 ; 1.0258640299653706E11 ; 0.0
94 ; 4.4504276105461225E7 ; 1.2103195883888555E9 ; 4.0952342162318225E9 ; 1.0379665509037897E11 ; 0.0
95 ; 4.4490090306966625E7 ; 1.2103872020187333E9 ; 4.1397384923372836E9 ; 1.0500697467876782E11 ; 0.0
96 ; 4.44708512210648E7 ; 1.2104549268520203E9 ; 4.1842285826442504E9 ; 1.0621736188078656E11 ; 0.0
97 ; 4.4453504199480936E7 ; 1.2105227552011368E9 ; 4.228699433865315E9 ; 1.0742781680763858E11 ; 0.0
98 ; 4.443938578354685E7 ; 1.2105906795643692E9 ; 4.273152938064796E9 ; 1.0863833956283972E11 ; 0.0
99 ; 4.442556320311451E7 ; 1.2106586926199863E9 ; 4.317592323848343E9 ; 1.0984893024240408E11 ; 0.0
100 ; 4.4397449306807995E7 ; 1.2107267872205362E9 ; 4.362017887051457E9 ; 1.1105958893502406E11 ; 0.0
101 ; 4.438175879954171E7 ; 1.2107949563873217E9 ; 4.406415336358265E9 ; 1.122703157222446E11 ; 0.0
102 ; 4.4363210976938784E7 ; 1.21086319330505E9 ; 4.450797095157806E9 ; 1.1348111067863193E11 ; 0.0
103 ; 4.435097822350009E7 ; 1.2109314913166528E9 ; 4.495160306134746E9 ; 1.1469197387193698E11 ; 0.0
104 ; 4.4328849169798285E7 ; 1.2109998439182734E9 ; 4.539511284358246E9 ; 1.1590290536325363E11 ; 0.0
105 ; 4.430890513030909E7 ; 1.211068244754418E9 ; 4.583840133528044E9 ; 1.171139052071719E11 ; 0.0
106 ; 4.4289163768035084E7 ; 1.2111366876132622E9 ; 4.628149038658353E9 ; 1.1832497345192633E11 ; 0.0
107 ; 4.426684386514771E7 ; 1.211205166422117E9 ; 4.672438202426388E9 ; 1.195361101395396E11 ; 0.0
108 ; 4.4248041727153674E7 ; 1.2112736752430425E9 ; 4.716705046291535E9 ; 1.2074731530596172E11 ; 0.0
109 ; 4.4225891393759705E7 ; 1.2113422082686074E9 ; 4.760953088018689E9 ; 1.2195858898120476E11 ; 0.0
110 ; 4.420441921515336E7 ; 1.2114107598177924E9 ; 4.805178979412449E9 ; 1.2316993118947336E11 ; 0.0
111 ; 4.417950378845564E7 ; 1.2114793243320317E9 ; 4.849383398627603E9 ; 1.2438134194929115E11 ; 0.0
112 ; 4.4160935408560365E7 ; 1.2115478963713884E9 ; 4.893562902416059E9 ; 1.2559282127362318E11 ; 0.0
113 ; 4.413423222286365E7 ; 1.211616470610857E9 ; 4.937723837824619E9 ; 1.2680436916999457E11 ; 0.0
114 ; 4.411507947081576E7 ; 1.2116850418367968E9 ; 4.9818580700474825E9 ; 1.2801598564060542E11 ; 0.0
115 ; 4.408034357251668E7 ; 1.2117536049434838E9 ; 5.025973149518298E9 ; 1.2922767068244221E11 ; 0.0
116 ; 4.406877742220365E7 ; 1.2118221549297814E9 ; 5.070053493090815E9 ; 1.304394242873857E11 ; 0.0
117 ; 4.403460835662646E7 ; 1.2118906868959267E9 ; 5.114122270513019E9 ; 1.3165124644231548E11 ; 0.0
118 ; 4.4011110443639256E7 ; 1.2119591960404248E9 ; 5.158156878869645E9 ; 1.328631371292114E11 ; 0.0
119 ; 4.398789534683489E7 ; 1.2120276776570535E9 ; 5.202167989313284E9 ; 1.3407509632525182E11 ; 0.0
120 ; 4.396257672152362E7 ; 1.212096127131967E9 ; 5.246155884660119E9 ; 1.3528712400290887E11 ; 0.0
121 ; 4.393981864319887E7 ; 1.212164539940905E9 ; 5.290118461381642E9 ; 1.3649922013004085E11 ; 0.0
122 ; 4.3905588214965835E7 ; 1.2122329116464937E9 ; 5.334058280024841E9 ; 1.3771138466998175E11 ; 0.0
123 ; 4.388605443138142E7 ; 1.2123012378956423E9 ; 5.377963868239807E9 ; 1.3892361758162823E11 ; 0.0
124 ; 4.3854240880175605E7 ; 1.212369514417027E9 ; 5.421849922671188E9 ; 1.4013591881952386E11 ; 0.0
125 ; 4.382220446550157E7 ; 1.212437737018668E9 ; 5.465704163551364E9 ; 1.413482883339409E11 ; 0.0
126 ; 4.3798343924759515E7 ; 1.212505901585583E9 ; 5.509526368016866E9 ; 1.4256072607095956E11 ; 0.0
127 ; 4.376440317939085E7 ; 1.212574004077526E9 ; 5.553324711941626E9 ; 1.4377323197254514E11 ; 0.0
128 ; 4.374684884473327E7 ; 1.2126420405268037E9 ; 5.5970891151210165E9 ; 1.4498580597662265E11 ; 0.0
129 ; 4.371166827761562E7 ; 1.2127100070361679E9 ; 5.64083596396575E9 ; 1.4619844801714944E11 ; 0.0
130 ; 4.367381794430885E7 ; 1.2127778997767773E9 ; 5.684547632243365E9 ; 1.474111580241856E11 ; 0.0
131 ; 4.362724356123565E7 ; 1.2128457149862342E9 ; 5.7282214501876745E9 ; 1.4862393592396237E11 ; 0.0
132 ; 4.358626322463465E7 ; 1.2129134489666865E9 ; 5.77184869374891E9 ; 1.498367816389486E11 ; 0.0
133 ; 4.354316409863943E7 ; 1.2129810980829942E9 ; 5.815434956973545E9 ; 1.5104969508791528E11 ; 0.0
134 ; 4.350698834885576E7 ; 1.2130486587609603E9 ; 5.858978121072185E9 ; 1.522626761859983E11 ; 0.0
135 ; 4.345756578841631E7 ; 1.213116127485623E9 ; 5.902485109421041E9 ; 1.5347572484475925E11 ; 0.0
136 ; 4.340815224288975E7 ; 1.213183500799604E9 ; 5.945942675209456E9 ; 1.5468884097224487E11 ; 0.0
137 ; 4.3367033105198145E7 ; 1.2132507753015156E9 ; 5.989350827452346E9 ; 1.5590202447304446E11 ; 0.0
138 ; 4.332209594077437E7 ; 1.213317947644422E9 ; 6.032717860557544E9 ; 1.5711527524834598E11 ; 0.0
139 ; 4.3274858594900176E7 ; 1.2133850145343518E9 ; 6.076039956498318E9 ; 1.583285931959904E11 ; 0.0
140 ; 4.323393099650453E7 ; 1.2134519727288618E9 ; 6.119314815093218E9 ; 1.5954197821052475E11 ; 0.0
141 ; 4.318233031575123E7 ; 1.2135188190356498E9 ; 6.162548746089723E9 ; 1.607554301832536E11 ; 0.0
142 ; 4.312861038604668E7 ; 1.2135855503112152E9 ; 6.205731076405474E9 ; 1.6196894900228925E11 ; 0.0
143 ; 4.308524368939851E7 ; 1.2136521634595635E9 ; 6.24885968679152E9 ; 1.6318253455260046E11 ; 0.0
144 ; 4.303764026569241E7 ; 1.2137186554309547E9 ; 6.291944930480919E9 ; 1.6439618671606003E11 ; 0.0
145 ; 4.300824504961322E7 ; 1.2137850232206955E9 ; 6.334982570746612E9 ; 1.65609905371491E11 ; 0.0
146 ; 4.297100538274301E7 ; 1.2138512638679705E9 ; 6.377990815796225E9 ; 1.668236903947117E11 ; 0.0
147 ; 4.294013046614274E7 ; 1.213917374454713E9 ; 6.420961821178967E9 ; 1.6803754165857968E11 ; 0.0
148 ; 4.290817748863304E7 ; 1.213983352104515E9 ; 6.46390195164511E9 ; 1.692514590330344E11 ; 0.0
149 ; 4.2879029391297475E7 ; 1.2140491939815705E9 ; 6.506810129133743E9 ; 1.7046544238513892E11 ; 0.0
150 ; 4.284273153357541E7 ; 1.214114897289658E9 ; 6.549689158525041E9 ; 1.7167949157912048E11 ; 0.0
151 ; 4.281782810135001E7 ; 1.2141804592711542E9 ; 6.592531890058616E9 ; 1.7289360647641016E11 ; 0.0
152 ; 4.2777726879178606E7 ; 1.2142458772060804E9 ; 6.6353497181599655E9 ; 1.741077869356813E11 ; 0.0
153 ; 4.27455633115874E7 ; 1.2143111484111834E9 ; 6.6781274450391445E9 ; 1.753220328128874E11 ; 0.0
154 ; 4.2712048436632335E7 ; 1.2143762702390413E9 ; 6.720873008350732E9 ; 1.7653634396129858E11 ; 0.0
155 ; 4.267710772722757E7 ; 1.2144412400772054E9 ; 6.763585056787364E9 ; 1.7775072023153763E11 ; 0.0
156 ; 4.264524929858395E7 ; 1.214506055347365E9 ; 6.806262164514591E9 ; 1.7896516147161484E11 ; 0.0
157 ; 4.2614512758481845E7 ; 1.2145707135045426E9 ; 6.848907413813175E9 ; 1.801796675269622E11 ; 0.0
158 ; 4.257274138532685E7 ; 1.2146352120363135E9 ; 6.891521926571657E9 ; 1.8139423824046674E11 ; 0.0
159 ; 4.254216069872448E7 ; 1.214699548462053E9 ; 6.934094667956984E9 ; 1.8260887345250305E11 ; 0.0
160 ; 4.250489803816101E7 ; 1.2147637203322062E9 ; 6.976636828655708E9 ; 1.8382357300096512E11 ; 0.0
161 ; 4.248011180119164E7 ; 1.214827725227582E9 ; 7.01914172669387E9 ; 1.8503833672129733E11 ; 0.0
162 ; 4.243987411011548E7 ; 1.2148915607586715E9 ; 7.061621838495061E9 ; 1.862531644465249E11 ; 0.0
163 ; 4.240771931980349E7 ; 1.2149552245649855E9 ; 7.104061712605176E9 ; 1.8746805600728357E11 ; 0.0
164 ; 4.237474979344862E7 ; 1.2150187143144162E9 ; 7.146469431924979E9 ; 1.8868301123184854E11 ; 0.0
165 ; 4.23425628996749E7 ; 1.2150820277026186E9 ; 7.188844181718428E9 ; 1.8989802994616296E11 ; 0.0
166 ; 4.230552577280416E7 ; 1.2151451624524093E9 ; 7.231186744618103E9 ; 1.9111311197386557E11 ; 0.0
167 ; 4.226498286267633E7 ; 1.2152081163131897E9 ; 7.273492270390907E9 ; 1.92328257136318E11 ; 0.0
168 ; 4.223674720269852E7 ; 1.215270887060382E9 ; 7.315757253253584E9 ; 1.935434652526312E11 ; 0.0
169 ; 4.219601868936784E7 ; 1.2153334724948869E9 ; 7.357994000456283E9 ; 1.947587361396916E11 ; 0.0
170 ; 4.215965215147465E7 ; 1.215395870442557E9 ; 7.400190019145651E9 ; 1.9597406961218646E11 ; 0.0
171 ; 4.212659407606485E7 ; 1.2154580787536879E9 ; 7.442349671297126E9 ; 1.9718946548262903E11 ; 0.0
172 ; 4.2089837487153396E7 ; 1.2155200953025234E9 ; 7.484476265373191E9 ; 1.9840492356138272E11 ; 0.0
173 ; 4.205859487747644E7 ; 1.2155819179867795E9 ; 7.526566102860344E9 ; 1.9962044365668524E11 ; 0.0
174 ; 4.2040752255470514E7 ; 1.215643544727179E9 ; 7.568624697737821E9 ; 2.0083602557467203E11 ; 0.0
175 ; 4.2012403488671914E7 ; 1.2157049734670057E9 ; 7.610665449993291E9 ; 2.020516691193992E11 ; 0.0
176 ; 4.199312242575189E7 ; 1.2157662021716685E9 ; 7.652677853481963E9 ; 2.032673740928662E11 ; 0.0
177 ; 4.19734742914774E7 ; 1.2158272288282814E9 ; 7.694670975907715E9 ; 2.0448314029503787E11 ; 0.0
178 ; 4.195219011994548E7 ; 1.2158880514452553E9 ; 7.736644450199192E9 ; 2.0569896752386615E11 ; 0.0
179 ; 4.1930037121891275E7 ; 1.2159486680519028E9 ; 7.778596640319138E9 ; 2.069148555753114E11 ; 0.0
180 ; 4.190598368505666E7 ; 1.216009076698057E9 ; 7.820526677441029E9 ; 2.081308042433633E11 ; 0.0
181 ; 4.188305756092577E7 ; 1.216069275453699E9 ; 7.862432661126085E9 ; 2.0934681332006137E11 ; 0.0
182 ; 4.18645233485222E7 ; 1.216129262408599E9 ; 7.904315718687011E9 ; 2.1056288259551508E11 ; 0.0
183 ; 4.1845470787073E7 ; 1.216189035671968E9 ; 7.946180242035533E9 ; 2.1177901185792368E11 ; 0.0
184 ; 4.1814657217966214E7 ; 1.2162485933721206E9 ; 7.988025712822606E9 ; 2.1299520089359564E11 ; 0.0
185 ; 4.179437919985689E7 ; 1.216307933656146E9 ; 8.029840370040572E9 ; 2.1421144948696777E11 ; 0.0
186 ; 4.177421219961115E7 ; 1.2163670546895928E9 ; 8.071634749240429E9 ; 2.1542775742062393E11 ; 0.0
187 ; 4.17529583520226E7 ; 1.2164259546561608E9 ; 8.11340896144004E9 ; 2.1664412447531354E11 ; 0.0
188 ; 4.172299967802574E7 ; 1.2164846317574015E9 ; 8.155161919792062E9 ; 2.178605504299697E11 ; 0.0
189 ; 4.1704716292368256E7 ; 1.2165430842124302E9 ; 8.196884919470088E9 ; 2.190770350617271E11 ; 0.0
190 ; 4.169028871988106E7 ; 1.2166013102576454E9 ; 8.238589635762456E9 ; 2.2029357814593954E11 ; 0.0
191 ; 4.1664719558389366E7 ; 1.2166593081464565E9 ; 8.280279924482337E9 ; 2.215101794561972E11 ; 0.0
192 ; 4.163614168054059E7 ; 1.2167170761490204E9 ; 8.321944644040727E9 ; 2.2272683876434366E11 ; 0.0
193 ; 4.1612888855757564E7 ; 1.2167746125519855E9 ; 8.363580785721268E9 ; 2.2394355584049268E11 ; 0.0
194 ; 4.159690347811775E7 ; 1.2168319156582441E9 ; 8.405193674577025E9 ; 2.2516033045304465E11 ; 0.0
195 ; 4.157181106232437E7 ; 1.216888983786691E9 ; 8.446790578055143E9 ; 2.2637716236870288E11 ; 0.0
196 ; 4.1553956761544004E7 ; 1.2169458152719908E9 ; 8.488362389117468E9 ; 2.2759405135248956E11 ; 0.0
