CSV File for the Network on Day 223
1 - Minute m 
2 - Power Consumed at minute m 
3 - Power Produced at minute m 
4 - Energy Consumed since the beginning of the day 
5 - Energy Produced since the beginning of the day 
6 - Energy Lost since the beginning of the day 
 
0 ; 2629829.4705416127 ; 6.320105761168431E8 ; 0.0 ; 0.0 ; 0.0
1 ; 2676029.8902203883 ; 6.329007070692353E8 ; 2629829.4705416127 ; 6.320105761168431E8 ; 0.0
2 ; 2723961.24961552 ; 6.356453351646513E8 ; 5305859.360762001 ; 1.2649112831860785E9 ; 0.0
3 ; 2774978.5641497714 ; 6.402447419621882E8 ; 8029820.61037752 ; 1.90055661835073E9 ; 0.0
4 ; 2838043.9659083025 ; 6.466992195125378E8 ; 1.0804799174527291E7 ; 2.540801360312918E9 ; 0.0
5 ; 2908482.262866337 ; 6.550090620651355E8 ; 1.3642843140435593E7 ; 3.187500579825456E9 ; 0.0
6 ; 3008534.1955317566 ; 6.65174555061198E8 ; 1.655132540330193E7 ; 3.8425096418905916E9 ; 0.0
7 ; 3139622.1934239054 ; 6.771959617729737E8 ; 1.9559859598833688E7 ; 4.50768419695179E9 ; 0.0
8 ; 3328165.318645513 ; 6.910735085308614E8 ; 2.2699481792257592E7 ; 5.184880158724764E9 ; 0.0
9 ; 3617240.5254000616 ; 7.068073700751226E8 ; 2.6027647110903107E7 ; 5.875953667255625E9 ; 0.0
10 ; 4057468.8998166 ; 7.243976569796345E8 ; 2.9644887636303168E7 ; 6.582761037330748E9 ; 0.0
11 ; 4752337.849191248 ; 7.438444071121598E8 ; 3.370235653611977E7 ; 7.307158694310382E9 ; 0.0
12 ; 5865820.723729473 ; 7.651475826049358E8 ; 3.8454694385311015E7 ; 8.051003101422542E9 ; 0.0
13 ; 6937497.779414169 ; 7.883070728840847E8 ; 4.4320515109040484E7 ; 8.816150684027477E9 ; 0.0
14 ; 7067723.67484986 ; 8.133227032093463E8 ; 5.125801288845465E7 ; 9.604457756911562E9 ; 0.0
15 ; 7119627.135389572 ; 8.401942472503204E8 ; 5.832573656330451E7 ; 1.0417780460120909E10 ; 0.0
16 ; 7177718.065944063 ; 8.6892144173476E8 ; 6.544536369869409E7 ; 1.125797470737123E10 ; 0.0
17 ; 7236530.695397513 ; 8.995040012214475E8 ; 7.262308176463816E7 ; 1.212689614910599E10 ; 0.0
18 ; 7290720.334777942 ; 9.319416314609478E8 ; 7.985961246003567E7 ; 1.3026400150327436E10 ; 0.0
19 ; 7347206.516685918 ; 9.662340404025687E8 ; 8.71503327948136E7 ; 1.3958341781788383E10 ; 0.0
20 ; 7409300.560833048 ; 1.0023809464872133E9 ; 9.449753931149952E7 ; 1.4924575822190952E10 ; 0.0
21 ; 7460823.432142474 ; 1.0403820843107891E9 ; 1.0190683987233257E8 ; 1.5926956768678165E10 ; 0.0
22 ; 7520414.564893408 ; 1.080237208012967E9 ; 1.0936766330447504E8 ; 1.6967338852988955E10 ; 0.0
23 ; 7577992.541525088 ; 1.1219460928614156E9 ; 1.1688807786936845E8 ; 1.8047576061001923E10 ; 0.0
24 ; 7640865.7169477055 ; 1.1655085355078492E9 ; 1.2446607041089353E8 ; 1.916952215386334E10 ; 0.0
25 ; 7696461.1124831755 ; 1.2030525987255335E9 ; 1.3210693612784123E8 ; 2.033503068937119E10 ; 0.0
26 ; 7751139.054121258 ; 1.2030994064105186E9 ; 1.398033972403244E8 ; 2.153808328809672E10 ; 0.0
27 ; 7810777.934844238 ; 1.2031474291977017E9 ; 1.4755453629444566E8 ; 2.274118269450724E10 ; 0.0
28 ; 7867683.333477432 ; 1.203196538276158E9 ; 1.553653142292899E8 ; 2.394433012370494E10 ; 0.0
29 ; 7923130.680692857 ; 1.20324661947296E9 ; 1.6323299756276733E8 ; 2.51475266619811E10 ; 0.0
30 ; 7980321.554717718 ; 1.203297571643589E9 ; 1.7115612824346018E8 ; 2.635077328145406E10 ; 0.0
31 ; 8030950.004676517 ; 1.2033493051723645E9 ; 1.791364497981779E8 ; 2.755407085309765E10 ; 0.0
32 ; 8086660.206574118 ; 1.2034017406044798E9 ; 1.8716739980285442E8 ; 2.875742015827001E10 ; 0.0
33 ; 8136476.3443990275 ; 1.2034548074165354E9 ; 1.9525406000942853E8 ; 2.9960821898874493E10 ; 0.0
34 ; 8193056.30826026 ; 1.2035084429232364E9 ; 2.0339053635382757E8 ; 3.1164276706291027E10 ; 0.0
35 ; 8238395.756390708 ; 1.2035625913125503E9 ; 2.1158359266208783E8 ; 3.2367785149214264E10 ; 0.0
36 ; 8285683.733169271 ; 1.2036172027988079E9 ; 2.1982198841847855E8 ; 3.3571347740526814E10 ; 0.0
37 ; 8337047.752222705 ; 1.2036722328820927E9 ; 2.281076721516478E8 ; 3.477496494332562E10 ; 0.0
38 ; 8381831.328640752 ; 1.203727641702169E9 ; 2.3644471990387052E8 ; 3.597863717620772E10 ; 0.0
39 ; 8427932.255297337 ; 1.2037833934757166E9 ; 2.4482655123251128E8 ; 3.718236481790989E10 ; 0.0
40 ; 8472326.52972329 ; 1.2038394560064826E9 ; 2.5325448348780861E8 ; 3.8386148211385605E10 ; 0.0
41 ; 8511799.069734897 ; 1.2038958002589607E9 ; 2.617268100175319E8 ; 3.958998766739209E10 ; 0.0
42 ; 8557405.71819816 ; 1.2039523999872394E9 ; 2.702386090872668E8 ; 4.079388346765105E10 ; 0.0
43 ; 8589960.820476372 ; 1.2040092314116528E9 ; 2.78796014805465E8 ; 4.199783586763828E10 ; 0.0
44 ; 8631672.537385868 ; 1.2040662729368079E9 ; 2.8738597562594134E8 ; 4.3201845099049934E10 ; 0.0
45 ; 8662085.931749625 ; 1.2041235049053962E9 ; 2.960176481633272E8 ; 4.440591137198674E10 ; 0.0
46 ; 8697389.347615015 ; 1.2041809093829582E9 ; 3.0467973409507686E8 ; 4.5610034876892136E10 ; 0.0
47 ; 8724119.90590572 ; 1.2042384699694254E9 ; 3.1337712344269186E8 ; 4.681421578627509E10 ; 0.0
48 ; 8759007.188624293 ; 1.2042961716338487E9 ; 3.221012433485976E8 ; 4.801845425624452E10 ; 0.0
49 ; 8785877.052205052 ; 1.2043540005692155E9 ; 3.308602505372219E8 ; 4.922275042787837E10 ; 0.0
50 ; 8807950.625717444 ; 1.2044119440646992E9 ; 3.3964612758942693E8 ; 5.0427104428447586E10 ; 0.0
51 ; 8831429.187910605 ; 1.2044699903930478E9 ; 3.484540782151444E8 ; 5.163151637251228E10 ; 0.0
52 ; 8855090.475341568 ; 1.2045281287111425E9 ; 3.57285507403055E8 ; 5.2835986362905334E10 ; 0.0
53 ; 8881112.380593514 ; 1.2045863489720328E9 ; 3.661405978783966E8 ; 5.404051449161648E10 ; 0.0
54 ; 8902708.37602829 ; 1.2046446418469825E9 ; 3.750217102589901E8 ; 5.524510084058851E10 ; 0.0
55 ; 8927470.743251733 ; 1.2047029986562645E9 ; 3.839244186350184E8 ; 5.644974548243549E10 ; 0.0
56 ; 8950515.838285273 ; 1.2047614113076177E9 ; 3.9285188937827015E8 ; 5.765444848109176E10 ; 0.0
57 ; 8977232.282103729 ; 1.204819872241419E9 ; 4.018024052165554E8 ; 5.8859209892399376E10 ; 0.0
58 ; 8995438.973574886 ; 1.2048783743817587E9 ; 4.1077963749865913E8 ; 6.006402976464079E10 ; 0.0
59 ; 9023828.601959003 ; 1.2049369110927014E9 ; 4.19775076472234E8 ; 6.126890813902255E10 ; 0.0
60 ; 9037683.284707205 ; 1.20499547613913E9 ; 4.28798905074193E8 ; 6.247384505011526E10 ; 0.0
61 ; 9060074.413838636 ; 1.2050540636516228E9 ; 4.378365883589002E8 ; 6.367884052625439E10 ; 0.0
62 ; 9084131.041077482 ; 1.2051126680949068E9 ; 4.468966627727388E8 ; 6.4883894589906006E10 ; 0.0
63 ; 9105175.863966499 ; 1.2051712842394733E9 ; 4.559807938138163E8 ; 6.6089007258000916E10 ; 0.0
64 ; 9120862.40919408 ; 1.205229907136002E9 ; 4.6508596967778283E8 ; 6.729417854224039E10 ; 0.0
65 ; 9145954.687772714 ; 1.2052885320922813E9 ; 4.742068320869769E8 ; 6.849940844937639E10 ; 0.0
66 ; 9166559.425488528 ; 1.2053471546523461E9 ; 4.833527867747496E8 ; 6.970469698146867E10 ; 0.0
67 ; 9181936.787306668 ; 1.205405770577601E9 ; 4.925193462002381E8 ; 7.091004413612102E10 ; 0.0
68 ; 9202359.859137077 ; 1.2054643758297055E9 ; 5.017012829875448E8 ; 7.211544990669862E10 ; 0.0
69 ; 9222329.88328292 ; 1.2055229665550454E9 ; 5.1090364284668183E8 ; 7.332091428252834E10 ; 0.0
70 ; 9240341.064855918 ; 1.2055815390706167E9 ; 5.2012597272996473E8 ; 7.452643724908337E10 ; 0.0
71 ; 9260881.79863759 ; 1.2056400898511817E9 ; 5.2936631379482067E8 ; 7.573201878815399E10 ; 0.0
72 ; 9283791.030891739 ; 1.2056986155175636E9 ; 5.386271955934583E8 ; 7.693765887800517E10 ; 0.0
73 ; 9297340.96983224 ; 1.2057571128259687E9 ; 5.479109866243501E8 ; 7.814335749352274E10 ; 0.0
74 ; 9316143.66820834 ; 1.2058155786582327E9 ; 5.572083275941823E8 ; 7.934911460634871E10 ; 0.0
75 ; 9334598.864285886 ; 1.2058740100128994E9 ; 5.665244712623906E8 ; 8.055493018500694E10 ; 0.0
76 ; 9349392.45835566 ; 1.2059324039970527E9 ; 5.758590701266766E8 ; 8.176080419501984E10 ; 0.0
77 ; 9370825.052830497 ; 1.2059907578188293E9 ; 5.852084625850322E8 ; 8.296673659901689E10 ; 0.0
78 ; 9371387.086922163 ; 1.2060490687805476E9 ; 5.945792876378627E8 ; 8.417272735683572E10 ; 0.0
79 ; 9368677.95660102 ; 1.2061073342723958E9 ; 6.039506747247849E8 ; 8.537877642561627E10 ; 0.0
80 ; 9374999.332362577 ; 1.2061655517666254E9 ; 6.133193526813859E8 ; 8.658488375988867E10 ; 0.0
81 ; 9380400.58629242 ; 1.2062237188122087E9 ; 6.226943520137484E8 ; 8.77910493116553E10 ; 0.0
82 ; 9382179.266538115 ; 1.2062818330299115E9 ; 6.320747526000408E8 ; 8.899727303046751E10 ; 0.0
83 ; 9388302.73960919 ; 1.2063398921077518E9 ; 6.414569318665789E8 ; 9.020355486349742E10 ; 0.0
84 ; 9382949.809374724 ; 1.2063978937968032E9 ; 6.508452346061882E8 ; 9.140989475560518E10 ; 0.0
85 ; 9390498.318550516 ; 1.2064558359073193E9 ; 6.602281844155629E8 ; 9.261629264940198E10 ; 0.0
86 ; 9389928.133202417 ; 1.2065137163051467E9 ; 6.696186827341133E8 ; 9.38227484853093E10 ; 0.0
87 ; 9389188.120047921 ; 1.2065715329084036E9 ; 6.790086108673158E8 ; 9.502926220161444E10 ; 0.0
88 ; 9391749.557919841 ; 1.2066292836844037E9 ; 6.883977989873637E8 ; 9.623583373452284E10 ; 0.0
89 ; 9391997.43592035 ; 1.206686966646801E9 ; 6.977895485452836E8 ; 9.744246301820724E10 ; 0.0
90 ; 9395585.544686234 ; 1.2067445798529418E9 ; 7.071815459812039E8 ; 9.864914998485405E10 ; 0.0
91 ; 9400219.465355236 ; 1.2068021214014015E9 ; 7.165771315258901E8 ; 9.985589456470699E10 ; 0.0
92 ; 9396300.992767971 ; 1.2068595894296978E9 ; 7.259773509912454E8 ; 1.0106269668610838E11 ; 0.0
93 ; 9398684.738365928 ; 1.20691698211216E9 ; 7.353736519840133E8 ; 1.0226955627553809E11 ; 0.0
94 ; 9398730.48159654 ; 1.2069742976579478E9 ; 7.447723367223792E8 ; 1.0347647325765025E11 ; 0.0
95 ; 9400786.090862643 ; 1.2070315343092017E9 ; 7.541710672039758E8 ; 1.046834475553082E11 ; 0.0
96 ; 9395413.942000614 ; 1.207088690339322E9 ; 7.635718532948384E8 ; 1.058904790896174E11 ; 0.0
97 ; 9391277.857277596 ; 1.20714576405136E9 ; 7.72967267236839E8 ; 1.0709756777995673E11 ; 0.0
98 ; 9390177.107599357 ; 1.2072027537765148E9 ; 7.823585450941167E8 ; 1.0830471354400809E11 ; 0.0
99 ; 9386812.391894678 ; 1.207259657872733E9 ; 7.917487222017161E8 ; 1.095119162977846E11 ; 0.0
100 ; 9386842.952286199 ; 1.2073164747233958E9 ; 8.011355345936108E8 ; 1.1071917595565733E11 ; 0.0
101 ; 9387366.344188303 ; 1.2073732027360902E9 ; 8.10522377545897E8 ; 1.1192649243038072E11 ; 0.0
102 ; 9385224.969957372 ; 1.2074298403414617E9 ; 8.199097438900853E8 ; 1.131338656331168E11 ; 0.0
103 ; 9378254.227299629 ; 1.2074863859921353E9 ; 8.292949688600427E8 ; 1.1434129547345827E11 ; 0.0
104 ; 9371540.340770146 ; 1.2075428381617088E9 ; 8.386732230873423E8 ; 1.1554878185945041E11 ; 0.0
105 ; 9366834.15621424 ; 1.2075991953438048E9 ; 8.480447634281124E8 ; 1.1675632469761212E11 ; 0.0
106 ; 9360617.09571442 ; 1.2076554560511835E9 ; 8.574115975843266E8 ; 1.1796392389295593E11 ; 0.0
107 ; 9362055.368608601 ; 1.2077116188149068E9 ; 8.667722146800411E8 ; 1.1917157934900711E11 ; 0.0
108 ; 9359040.831235126 ; 1.2077676821835577E9 ; 8.761342700486497E8 ; 1.2037929096782202E11 ; 0.0
109 ; 9351328.297038767 ; 1.2078236447225013E9 ; 8.854933108798848E8 ; 1.2158705865000558E11 ; 0.0
110 ; 9344150.501586486 ; 1.207879505013194E9 ; 8.948446391769236E8 ; 1.2279488229472809E11 ; 0.0
111 ; 9339900.813556043 ; 1.2079352616525323E9 ; 9.041887896785101E8 ; 1.2400276179974129E11 ; 0.0
112 ; 9339013.51517615 ; 1.207990913252238E9 ; 9.135286904920661E8 ; 1.2521069706139381E11 ; 0.0
113 ; 9328316.004048916 ; 1.208046458438282E9 ; 9.228677040072423E8 ; 1.2641868797464606E11 ; 0.0
114 ; 9321213.375357129 ; 1.2081018958503397E9 ; 9.321960200112913E8 ; 1.2762673443308434E11 ; 0.0
115 ; 9319857.713356499 ; 1.2081572241412792E9 ; 9.415172333866484E8 ; 1.2883483632893468E11 ; 0.0
116 ; 9307040.41965871 ; 1.2082124419766772E9 ; 9.508370911000049E8 ; 1.3004299355307596E11 ; 0.0
117 ; 9301319.76694185 ; 1.208267548034362E9 ; 9.601441315196636E8 ; 1.3125120599505264E11 ; 0.0
118 ; 9294355.540379444 ; 1.2083225410039845E9 ; 9.694454512866055E8 ; 1.32459473543087E11 ; 0.0
119 ; 9293756.134505043 ; 1.2083774195866108E9 ; 9.787398068269849E8 ; 1.3366779608409099E11 ; 0.0
120 ; 9278155.21738323 ; 1.2084321824943404E9 ; 9.880335629614899E8 ; 1.348761735036776E11 ; 0.0
121 ; 9271002.387255117 ; 1.208486828449941E9 ; 9.973117181788732E8 ; 1.3608460568617194E11 ; 0.0
122 ; 9261027.764422258 ; 1.2085413561865084E9 ; 1.0065827205661283E9 ; 1.3729309251462187E11 ; 0.0
123 ; 9250185.219220385 ; 1.2085957644471405E9 ; 1.0158437483305506E9 ; 1.3850163387080838E11 ; 0.0
124 ; 9241254.742002036 ; 1.208650051984633E9 ; 1.025093933549771E9 ; 1.3971022963525552E11 ; 0.0
125 ; 9234614.612717122 ; 1.2087042175611885E9 ; 1.034335188291773E9 ; 1.4091887968724014E11 ; 0.0
126 ; 9222949.568336636 ; 1.2087582599481425E9 ; 1.0435698029044901E9 ; 1.4212758390480133E11 ; 0.0
127 ; 9212748.103380417 ; 1.2088121779257047E9 ; 1.0527927524728267E9 ; 1.4333634216474948E11 ; 0.0
128 ; 9205676.411594735 ; 1.2088659702827125E9 ; 1.0620055005762072E9 ; 1.4454515434267517E11 ; 0.0
129 ; 9191443.21299591 ; 1.2089196358163993E9 ; 1.0712111769878019E9 ; 1.457540203129579E11 ; 0.0
130 ; 9177023.041873094 ; 1.2089731733321724E9 ; 1.0804026202007978E9 ; 1.469629399487743E11 ; 0.0
131 ; 9152560.057112511 ; 1.2090265816434073E9 ; 1.0895796432426708E9 ; 1.4817191312210648E11 ; 0.0
132 ; 9131931.990483385 ; 1.2090798595712476E9 ; 1.0987322032997832E9 ; 1.4938093970374988E11 ; 0.0
133 ; 9102505.274810834 ; 1.2091330059444175E9 ; 1.1078641352902665E9 ; 1.5059001956332114E11 ; 0.0
134 ; 9078825.607367087 ; 1.2091860195990453E9 ; 1.1169666405650773E9 ; 1.5179915256926556E11 ; 0.0
135 ; 9052937.298077833 ; 1.2092388993784947E9 ; 1.1260454661724443E9 ; 1.5300833858886462E11 ; 0.0
136 ; 9027563.673373844 ; 1.2092916441332045E9 ; 1.1350984034705222E9 ; 1.5421757748824313E11 ; 0.0
137 ; 9003843.296774983 ; 1.2093442527205374E9 ; 1.144125967143896E9 ; 1.5542686913237634E11 ; 0.0
138 ; 8972716.031677566 ; 1.2093967240046358E9 ; 1.153129810440671E9 ; 1.566362133850969E11 ; 0.0
139 ; 8946061.541847968 ; 1.2094490568562865E9 ; 1.1621025264723485E9 ; 1.5784561010910153E11 ; 0.0
140 ; 8922011.46696458 ; 1.2095012501527905E9 ; 1.1710485880141964E9 ; 1.5905505916595782E11 ; 0.0
141 ; 8892106.626609635 ; 1.2095533027778406E9 ; 1.1799705994811609E9 ; 1.6026456041611063E11 ; 0.0
142 ; 8866237.636513581 ; 1.2096052136214042E9 ; 1.1888627061077704E9 ; 1.6147411371888846E11 ; 0.0
143 ; 8843358.762877785 ; 1.209656981579615E9 ; 1.197728943744284E9 ; 1.6268371893250986E11 ; 0.0
144 ; 8811391.026836012 ; 1.209708605554665E9 ; 1.2065723025071616E9 ; 1.6389337591408948E11 ; 0.0
145 ; 8803684.49929969 ; 1.2097600844547076E9 ; 1.2153836935339975E9 ; 1.6510308451964413E11 ; 0.0
146 ; 8794310.423917744 ; 1.2098114171937618E9 ; 1.2241873780332973E9 ; 1.6631284460409885E11 ; 0.0
147 ; 8781781.909191493 ; 1.2098626026916234E9 ; 1.232981688457215E9 ; 1.675226560212926E11 ; 0.0
148 ; 8768148.57935764 ; 1.209913639873779E9 ; 1.2417634703664067E9 ; 1.6873251862398422E11 ; 0.0
149 ; 8757417.548486758 ; 1.2099645276713264E9 ; 1.2505316189457643E9 ; 1.69942432263858E11 ; 0.0
150 ; 8750958.82465326 ; 1.2100152650208967E9 ; 1.259289036494251E9 ; 1.7115239679152933E11 ; 0.0
151 ; 8737661.782767331 ; 1.2100658508645835E9 ; 1.2680399953189042E9 ; 1.7236241205655023E11 ; 0.0
152 ; 8722733.162944332 ; 1.210116284149873E9 ; 1.2767776571016715E9 ; 1.7357247790741483E11 ; 0.0
153 ; 8717789.930810558 ; 1.2101665638295777E9 ; 1.2855003902646158E9 ; 1.747825941915647E11 ; 0.0
154 ; 8704260.883608434 ; 1.2102166888617766E9 ; 1.2942181801954262E9 ; 1.759927607553943E11 ; 0.0
155 ; 8687668.065633241 ; 1.210266658209755E9 ; 1.3029224410790346E9 ; 1.7720297744425607E11 ; 0.0
156 ; 8681994.751399927 ; 1.2103164708419485E9 ; 1.3116101091446679E9 ; 1.7841324410246582E11 ; 0.0
157 ; 8670335.243386291 ; 1.2103661257318916E9 ; 1.3202921038960679E9 ; 1.7962356057330777E11 ; 0.0
158 ; 8657065.341334978 ; 1.2104156218581674E9 ; 1.3289624391394541E9 ; 1.8083392669903967E11 ; 0.0
159 ; 8643827.964078153 ; 1.210464958204359E9 ; 1.3376195044807892E9 ; 1.8204434232089783E11 ; 0.0
160 ; 8642118.603798945 ; 1.210514133759006E9 ; 1.3462633324448674E9 ; 1.8325480727910217E11 ; 0.0
161 ; 8625033.089703102 ; 1.210563147515562E9 ; 1.3549054510486662E9 ; 1.8446532141286118E11 ; 0.0
162 ; 8610304.323157879 ; 1.2106119984723537E9 ; 1.3635304841383693E9 ; 1.8567588456037674E11 ; 0.0
163 ; 8599596.933438275 ; 1.2106606856325436E9 ; 1.372140788461527E9 ; 1.868864965588491E11 ; 0.0
164 ; 8589561.514976755 ; 1.2107092080040936E9 ; 1.3807403853949654E9 ; 1.8809715724448163E11 ; 0.0
165 ; 8573991.023617722 ; 1.2107575645997326E9 ; 1.3893299469099422E9 ; 1.8930786645248572E11 ; 0.0
166 ; 8562495.357130945 ; 1.2108057544369228E9 ; 1.39790393793356E9 ; 1.9051862401708545E11 ; 0.0
167 ; 8558645.870332697 ; 1.21085377653783E9 ; 1.406466433290691E9 ; 1.9172942977152237E11 ; 0.0
168 ; 8543442.010662034 ; 1.2109016299292963E9 ; 1.4150250791610236E9 ; 1.929402835480602E11 ; 0.0
169 ; 8527499.164076842 ; 1.2109493136428113E9 ; 1.4235685211716857E9 ; 1.941511851779895E11 ; 0.0
170 ; 8517428.660697673 ; 1.210996826714489E9 ; 1.4320960203357625E9 ; 1.9536213449163232E11 ; 0.0
171 ; 8505391.317270655 ; 1.2110441681850429E9 ; 1.4406134489964602E9 ; 1.965731313183468E11 ; 0.0
172 ; 8489722.66112212 ; 1.2110913370997639E9 ; 1.449118840313731E9 ; 1.9778417548653183E11 ; 0.0
173 ; 8484739.66337416 ; 1.2111383325085E9 ; 1.457608562974853E9 ; 1.989952668236316E11 ; 0.0
174 ; 8473247.36938739 ; 1.2111851534656358E9 ; 1.4660933026382272E9 ; 2.002064051561401E11 ; 0.0
175 ; 8464513.830836326 ; 1.211231799030075E9 ; 1.4745665500076146E9 ; 2.0141759030960574E11 ; 0.0
176 ; 8457005.725829924 ; 1.2112782682652235E9 ; 1.483031063838451E9 ; 2.026288221086358E11 ; 0.0
177 ; 8453230.096351948 ; 1.211324560238972E9 ; 1.4914880695642807E9 ; 2.0384010037690103E11 ; 0.0
178 ; 8438347.304409705 ; 1.211370674023683E9 ; 1.4999412996606326E9 ; 2.0505142493714E11 ; 0.0
179 ; 8434045.553929843 ; 1.2114166086961756E9 ; 1.5083796469650424E9 ; 2.062627956111637E11 ; 0.0
180 ; 8428558.485492881 ; 1.211462363337714E9 ; 1.5168136925189722E9 ; 2.0747421221985986E11 ; 0.0
181 ; 8415268.538052853 ; 1.2115079370339942E9 ; 1.525242251004465E9 ; 2.0868567458319757E11 ; 0.0
182 ; 8407348.435134148 ; 1.2115533288751342E9 ; 1.533657519542518E9 ; 2.0989718252023157E11 ; 0.0
183 ; 8402910.753289416 ; 1.2115985379556637E9 ; 1.542064867977652E9 ; 2.111087358491067E11 ; 0.0
184 ; 8388598.334076044 ; 1.2116435633745146E9 ; 1.5504677787309415E9 ; 2.1232033438706235E11 ; 0.0
185 ; 8386551.2997350935 ; 1.2116884042350123E9 ; 1.5588563770650175E9 ; 2.1353197795043686E11 ; 0.0
186 ; 8378827.299369366 ; 1.2117330596448698E9 ; 1.5672429283647525E9 ; 2.1474366635467188E11 ; 0.0
187 ; 8370645.560532649 ; 1.2117775287161794E9 ; 1.5756217556641219E9 ; 2.1595539941431674E11 ; 0.0
188 ; 8360396.958388554 ; 1.2118218105654058E9 ; 1.5839924012246544E9 ; 2.1716717694303293E11 ; 0.0
189 ; 8356874.389676034 ; 1.2118659043133826E9 ; 1.592352798183043E9 ; 2.1837899875359833E11 ; 0.0
190 ; 8348485.813960753 ; 1.2119098090853062E9 ; 1.600709672572719E9 ; 2.195908646579117E11 ; 0.0
191 ; 8338564.648958284 ; 1.2119535240107315E9 ; 1.60905815838668E9 ; 2.20802774466997E11 ; 0.0
192 ; 8328731.968557387 ; 1.2119970482235692E9 ; 1.617396723035638E9 ; 2.2201472799100775E11 ; 0.0
193 ; 8322522.085241736 ; 1.212040380862082E9 ; 1.6257254550041955E9 ; 2.2322672503923132E11 ; 0.0
194 ; 8317054.574637987 ; 1.2120835210688815E9 ; 1.6340479770894372E9 ; 2.244387654200934E11 ; 0.0
195 ; 8305193.069150558 ; 1.2121264679909284E9 ; 1.6423650316640751E9 ; 2.256508489411623E11 ; 0.0
196 ; 8296738.171876563 ; 1.2121692207795281E9 ; 1.6506702247332256E9 ; 2.2686297540915323E11 ; 0.0
197 ; 8292416.082823409 ; 1.212211778590332E9 ; 1.6589669629051023E9 ; 2.2807514462993277E11 ; 0.0
198 ; 8283911.975297014 ; 1.2122541405833359E9 ; 1.6672593789879258E9 ; 2.292873564085231E11 ; 0.0
199 ; 8276538.904847721 ; 1.2122963059228797E9 ; 1.6755432909632227E9 ; 2.3049961054910645E11 ; 0.0
200 ; 8267131.108340785 ; 1.2123382737776484E9 ; 1.6838198298680704E9 ; 2.3171190685502933E11 ; 0.0
201 ; 8259114.122482342 ; 1.1410564740129414E9 ; 1.692086960976411E9 ; 2.3292424512880698E11 ; 0.0
