CSV File for the Network on Day 79
1 - Minute m 
2 - Power Consumed at minute m 
3 - Power Produced at minute m 
4 - Energy Consumed since the beginning of the day 
5 - Energy Produced since the beginning of the day 
6 - Energy Lost since the beginning of the day 
 
0 ; 3.854523040757491E7 ; 6.347910746764414E8 ; 0.0 ; 0.0 ; 0.0
1 ; 3.858882153477303E7 ; 6.357017196107395E8 ; 3.854523040757491E7 ; 6.347910746764414E8 ; 0.0
2 ; 3.863100374402669E7 ; 6.384657696101351E8 ; 7.713405194234794E7 ; 1.270492794287181E9 ; 0.0
3 ; 3.8671301809794165E7 ; 6.430832426393914E8 ; 1.1576505568637463E8 ; 1.908958563897316E9 ; 0.0
4 ; 3.873746582610478E7 ; 6.495541548222915E8 ; 1.544363574961688E8 ; 2.5520418065367074E9 ; 0.0
5 ; 3.880252129632115E7 ; 6.578785203441833E8 ; 1.9317382332227358E8 ; 3.201595961358999E9 ; 0.0
6 ; 3.89003545082239E7 ; 6.680563513644427E8 ; 2.3197634461859474E8 ; 3.859474481703182E9 ; 0.0
7 ; 3.902152643566467E7 ; 6.800876579400876E8 ; 2.7087669912681866E8 ; 4.527530833067625E9 ; 0.0
8 ; 3.920576789112969E7 ; 6.939724479616544E8 ; 3.098982255624833E8 ; 5.207618491007712E9 ; 0.0
9 ; 3.949594356433604E7 ; 7.097107271022887E8 ; 3.49103993453613E8 ; 5.901590938969367E9 ; 0.0
10 ; 3.992427760767627E7 ; 7.273024987808099E8 ; 3.8859993701794904E8 ; 6.611301666071655E9 ; 0.0
11 ; 4.06161469802019E7 ; 7.467477641393257E8 ; 4.285242146256253E8 ; 7.338604164852465E9 ; 0.0
12 ; 4.1719706121065915E7 ; 7.680465220357288E8 ; 4.691403616058272E8 ; 8.085351928991791E9 ; 0.0
13 ; 4.278353850101177E7 ; 7.911987690511986E8 ; 5.108600677268931E8 ; 8.85339845102752E9 ; 0.0
14 ; 4.290617121720239E7 ; 8.162044995125911E8 ; 5.536436062279049E8 ; 9.644597220078718E9 ; 0.0
15 ; 4.295700944051297E7 ; 8.430637055293684E8 ; 5.965497774451073E8 ; 1.0460801719591309E10 ; 0.0
16 ; 4.3009118078722075E7 ; 8.717763770445137E8 ; 6.395067868856204E8 ; 1.1303865425120678E10 ; 0.0
17 ; 4.306464721072109E7 ; 9.023425018986508E8 ; 6.825159049643425E8 ; 1.2175641802165192E10 ; 0.0
18 ; 4.310849596082072E7 ; 9.347620659064313E8 ; 7.255805521750636E8 ; 1.3077984304063843E10 ; 0.0
19 ; 4.3160087633177206E7 ; 9.69035052944073E8 ; 7.686890481358843E8 ; 1.4012746369970274E10 ; 0.0
20 ; 4.3207220394227326E7 ; 1.0051614450468116E9 ; 8.118491357690614E8 ; 1.4981781422914347E10 ; 0.0
21 ; 4.326175687158624E7 ; 1.0431412225149361E9 ; 8.550563561632888E8 ; 1.5986942867961159E10 ; 0.0
22 ; 4.330815429498087E7 ; 1.08297436402699E9 ; 8.98318113034875E8 ; 1.7030084090476095E10 ; 0.0
23 ; 4.3357174520573884E7 ; 1.1246608467587118E9 ; 9.416262673298559E8 ; 1.8113058454503086E10 ; 0.0
24 ; 4.3407329958575234E7 ; 1.168200646506259E9 ; 9.849834418504298E8 ; 1.92377193012618E10 ; 0.0
25 ; 4.346388641311107E7 ; 1.2057219832013996E9 ; 1.028390771809005E9 ; 2.040591994776806E10 ; 0.0
26 ; 4.349739273890724E7 ; 1.2057461172604666E9 ; 1.0718546582221161E9 ; 2.161164193096946E10 ; 0.0
27 ; 4.3563058303926945E7 ; 1.2057716368615508E9 ; 1.1153520509610233E9 ; 2.2817388048229927E10 ; 0.0
28 ; 4.360096065388108E7 ; 1.2057985135518832E9 ; 1.1589151092649503E9 ; 2.4023159685091476E10 ; 0.0
29 ; 4.36570006111287E7 ; 1.2058267181319318E9 ; 1.2025160699188313E9 ; 2.522895819864336E10 ; 0.0
30 ; 4.370182655926917E7 ; 1.2058562207769103E9 ; 1.2461730705299602E9 ; 2.643478491677529E10 ; 0.0
31 ; 4.375194762631609E7 ; 1.2058869911543033E9 ; 1.2898748970892293E9 ; 2.76406411375522E10 ; 0.0
32 ; 4.37942660923424E7 ; 1.205918998536674E9 ; 1.3336268447155454E9 ; 2.8846528128706505E10 ; 0.0
33 ; 4.3839507931947544E7 ; 1.2059522119091341E9 ; 1.3774211108078878E9 ; 3.005244712724318E10 ; 0.0
34 ; 4.388948833610213E7 ; 1.2059866000709958E9 ; 1.4212606187398353E9 ; 3.1258399339152313E10 ; 0.0
35 ; 4.392636332481031E7 ; 1.2060221317312264E9 ; 1.4651501070759373E9 ; 3.246438593922331E10 ; 0.0
36 ; 4.395975343476493E7 ; 1.206058775597457E9 ; 1.5090764704007475E9 ; 3.3670408070954536E10 ; 0.0
37 ; 4.399456100271195E7 ; 1.206096500458381E9 ; 1.5530362238355124E9 ; 3.4876466846551994E10 ; 0.0
38 ; 4.404050731295088E7 ; 1.2061352752594905E9 ; 1.5970307848382244E9 ; 3.6082563347010376E10 ; 0.0
39 ; 4.407146280403336E7 ; 1.2061750691721609E9 ; 1.6410712921511753E9 ; 3.728869862226987E10 ; 0.0
40 ; 4.4100960597780004E7 ; 1.2062158516561856E9 ; 1.6851427549552085E9 ; 3.8494873691442024E10 ; 0.0
41 ; 4.4141045130605355E7 ; 1.2062575925159142E9 ; 1.7292437155529885E9 ; 3.970108954309821E10 ; 0.0
42 ; 4.416808300008062E7 ; 1.2063002619502003E9 ; 1.773384760683594E9 ; 4.090734713561413E10 ; 0.0
43 ; 4.420072607351617E7 ; 1.2063438305964086E9 ; 1.8175528436836746E9 ; 4.211364739756433E10 ; 0.0
44 ; 4.422663322779834E7 ; 1.206388269568766E9 ; 1.8617535697571907E9 ; 4.3319991228160736E10 ; 0.0
45 ; 4.424977799094891E7 ; 1.2064335504913607E9 ; 1.9059802029849892E9 ; 4.45263794977295E10 ; 0.0
46 ; 4.427586421232001E7 ; 1.2064796455261126E9 ; 1.950229980975938E9 ; 4.573281304822086E10 ; 0.0
47 ; 4.429079816382411E7 ; 1.2065265273960526E9 ; 1.9945058451882582E9 ; 4.693929269374698E10 ; 0.0
48 ; 4.431368155687312E7 ; 1.2065741694042473E9 ; 2.0387966433520823E9 ; 4.814581922114303E10 ; 0.0
49 ; 4.433097553415705E7 ; 1.2066225454487028E9 ; 2.0831103249089553E9 ; 4.935239339054727E10 ; 0.0
50 ; 4.4341916950960495E7 ; 1.2066716300335906E9 ; 2.1274413004431124E9 ; 5.055901593599597E10 ; 0.0
51 ; 4.436244918057193E7 ; 1.2067213982771091E9 ; 2.171783217394073E9 ; 5.1765687566029564E10 ; 0.0
52 ; 4.43701198619145E7 ; 1.2067718259163055E9 ; 2.216145666574645E9 ; 5.297240896430667E10 ; 0.0
53 ; 4.438965596820182E7 ; 1.2068228893091502E9 ; 2.2605157864365597E9 ; 5.417918079022298E10 ; 0.0
54 ; 4.439434679269668E7 ; 1.2068745654341545E9 ; 2.3049054424047613E9 ; 5.538600367953213E10 ; 0.0
55 ; 4.440991671203818E7 ; 1.2069268318878014E9 ; 2.349299789197458E9 ; 5.659287824496628E10 ; 0.0
56 ; 4.441882056140887E7 ; 1.206979666880043E9 ; 2.393709705909496E9 ; 5.779980507685408E10 ; 0.0
57 ; 4.443708566356695E7 ; 1.2070330492280993E9 ; 2.438128526470905E9 ; 5.900678474373412E10 ; 0.0
58 ; 4.444634683849064E7 ; 1.2070869583487804E9 ; 2.482565612134472E9 ; 6.021381779296222E10 ; 0.0
59 ; 4.445511170434174E7 ; 1.2071413742495334E9 ; 2.5270119589729624E9 ; 6.1420904751311E10 ; 0.0
60 ; 4.4469396275741816E7 ; 1.2071962775184028E9 ; 2.5714670706773043E9 ; 6.262804612556053E10 ; 0.0
61 ; 4.4475375297727376E7 ; 1.2072516493130705E9 ; 2.615936466953046E9 ; 6.383524240307893E10 ; 0.0
62 ; 4.448340546471037E7 ; 1.2073074713491352E9 ; 2.6604118422507734E9 ; 6.5042494052392006E10 ; 0.0
63 ; 4.448556912221508E7 ; 1.2073637258877683E9 ; 2.7048952477154837E9 ; 6.624980152374114E10 ; 0.0
64 ; 4.449980430436846E7 ; 1.207420395722875E9 ; 2.749380816837699E9 ; 6.7457165249628914E10 ; 0.0
65 ; 4.450483490268775E7 ; 1.2074774641678762E9 ; 2.7938806211420674E9 ; 6.866458564535179E10 ; 0.0
66 ; 4.451065335059153E7 ; 1.207534915042207E9 ; 2.838385456044755E9 ; 6.987206310951967E10 ; 0.0
67 ; 4.4528061972907566E7 ; 1.20759273265763E9 ; 2.8828961093953466E9 ; 7.107959802456187E10 ; 0.0
68 ; 4.453271378875722E7 ; 1.207650901804441E9 ; 2.927424171368254E9 ; 7.22871907572195E10 ; 0.0
69 ; 4.453438478168425E7 ; 1.2077094077376332E9 ; 2.9719568851570115E9 ; 7.349484165902394E10 ; 0.0
70 ; 4.45425183885749E7 ; 1.2077682361630914E9 ; 3.016491269938696E9 ; 7.470255106676158E10 ; 0.0
71 ; 4.454400310983488E7 ; 1.207827373223861E9 ; 3.061033788327271E9 ; 7.591031930292467E10 ; 0.0
72 ; 4.455529108879593E7 ; 1.2078868054865446E9 ; 3.1055777914371057E9 ; 7.711814667614853E10 ; 0.0
73 ; 4.4558686874263436E7 ; 1.207946519927865E9 ; 3.150133082525902E9 ; 7.832603348163507E10 ; 0.0
74 ; 4.455786838031761E7 ; 1.2080065039214258E9 ; 3.194691769400165E9 ; 7.953398000156294E10 ; 0.0
75 ; 4.456639286856125E7 ; 1.2080667452247038E9 ; 3.239249637780483E9 ; 8.074198650548438E10 ; 0.0
76 ; 4.4563487356166065E7 ; 1.2081272319662933E9 ; 3.283816030649044E9 ; 8.195005325070908E10 ; 0.0
77 ; 4.45724168476634E7 ; 1.2081879526334226E9 ; 3.32837951800521E9 ; 8.315818048267537E10 ; 0.0
78 ; 4.4561083510075025E7 ; 1.2082488960597594E9 ; 3.3729519348528733E9 ; 8.436636843530879E10 ; 0.0
79 ; 4.455857851866866E7 ; 1.2083100514135191E9 ; 3.4175130183629484E9 ; 8.557461733136855E10 ; 0.0
80 ; 4.453908607610927E7 ; 1.2083714081858814E9 ; 3.462071596881617E9 ; 8.678292738278206E10 ; 0.0
81 ; 4.4534247911390424E7 ; 1.2084329561797242E9 ; 3.5066106829577265E9 ; 8.799129879096794E10 ; 0.0
82 ; 4.452294316230385E7 ; 1.2084946854986832E9 ; 3.551144930869117E9 ; 8.919973174714766E10 ; 0.0
83 ; 4.4509091185108125E7 ; 1.208556586536529E9 ; 3.5956678740314207E9 ; 9.040822643264635E10 ; 0.0
84 ; 4.448651021478319E7 ; 1.2086186499668765E9 ; 3.640176965216529E9 ; 9.161678301918288E10 ; 0.0
85 ; 4.447606854761918E7 ; 1.2086808667332108E9 ; 3.684663475431312E9 ; 9.282540166914975E10 ; 0.0
86 ; 4.4468191307032086E7 ; 1.2087432280392423E9 ; 3.7291395439789314E9 ; 9.403408253588297E10 ; 0.0
87 ; 4.4453688111828744E7 ; 1.2088057253395727E9 ; 3.7736077352859635E9 ; 9.524282576392221E10 ; 0.0
88 ; 4.443846554072318E7 ; 1.2088683503306808E9 ; 3.8180614233977923E9 ; 9.645163148926178E10 ; 0.0
89 ; 4.4423049104942836E7 ; 1.2089310949422135E9 ; 3.8624998889385157E9 ; 9.766049983959247E10 ; 0.0
90 ; 4.4414398381502554E7 ; 1.2089939513285801E9 ; 3.9069229380434585E9 ; 9.886943093453468E10 ; 0.0
91 ; 4.439818493092124E7 ; 1.2090569118608444E9 ; 3.951337336424961E9 ; 1.0007842488586327E11 ; 0.0
92 ; 4.4377347673301876E7 ; 1.2091199691189063E9 ; 3.995735521355882E9 ; 1.012874817977241E11 ; 0.0
93 ; 4.4359809525295764E7 ; 1.2091831158839629E9 ; 4.040112869029184E9 ; 1.0249660176684302E11 ; 0.0
94 ; 4.4348397363756925E7 ; 1.2092463451312501E9 ; 4.0844726785544796E9 ; 1.0370578488272697E11 ; 0.0
95 ; 4.433344194940498E7 ; 1.2093096500230455E9 ; 4.1288210759182367E9 ; 1.0491503122785823E11 ; 0.0
96 ; 4.431572847167019E7 ; 1.2093730239019356E9 ; 4.173154517867642E9 ; 1.0612434087788127E11 ; 0.0
97 ; 4.429853435027769E7 ; 1.209436460284332E9 ; 4.217470246339312E9 ; 1.073337139017832E11 ; 0.0
98 ; 4.427948258069101E7 ; 1.2094999528542333E9 ; 4.26176878068959E9 ; 1.0854315036206754E11 ; 0.0
99 ; 4.425811438138232E7 ; 1.2095634954572206E9 ; 4.306048263270281E9 ; 1.0975265031492177E11 ; 0.0
100 ; 4.424347148860358E7 ; 1.2096270820946841E9 ; 4.350306377651663E9 ; 1.1096221381037898E11 ; 0.0
101 ; 4.422129560061422E7 ; 1.2096907069182692E9 ; 4.394549849140266E9 ; 1.1217184089247366E11 ; 0.0
102 ; 4.419685367597413E7 ; 1.2097543642245328E9 ; 4.438771144740881E9 ; 1.1338153159939194E11 ; 0.0
103 ; 4.417894192270641E7 ; 1.2098180484498105E9 ; 4.482967998416855E9 ; 1.1459128596361647E11 ; 0.0
104 ; 4.415747739365926E7 ; 1.2098817541652749E9 ; 4.527146940339561E9 ; 1.1580110401206628E11 ; 0.0
105 ; 4.414638912830466E7 ; 1.2099454760721915E9 ; 4.571304417733221E9 ; 1.1701098576623155E11 ; 0.0
106 ; 4.4120591563477464E7 ; 1.210009208997354E9 ; 4.615450806861526E9 ; 1.1822093124230374E11 ; 0.0
107 ; 4.4096988967011854E7 ; 1.2100729478886976E9 ; 4.659571398425003E9 ; 1.194309404513011E11 ; 0.0
108 ; 4.4075411797057055E7 ; 1.2101366878110833E9 ; 4.7036683873920145E9 ; 1.206410133991898E11 ; 0.0
109 ; 4.404702132443975E7 ; 1.210200423942245E9 ; 4.747743799189072E9 ; 1.2185115008700089E11 ; 0.0
110 ; 4.402803691997231E7 ; 1.2102641515688953E9 ; 4.791790820513512E9 ; 1.2306135051094313E11 ; 0.0
111 ; 4.400336907119955E7 ; 1.210327866082982E9 ; 4.835818857433484E9 ; 1.2427161466251202E11 ; 0.0
112 ; 4.3985340920696795E7 ; 1.2103915629780896E9 ; 4.8798222265046835E9 ; 1.25481942528595E11 ; 0.0
113 ; 4.395507590772392E7 ; 1.2104552378459816E9 ; 4.923807567425381E9 ; 1.2669233409157309E11 ; 0.0
114 ; 4.3932898573174E7 ; 1.2105188863732781E9 ; 4.967762643333105E9 ; 1.2790278932941907E11 ; 0.0
115 ; 4.3904104157401934E7 ; 1.2105825043382587E9 ; 5.011695541906279E9 ; 1.2911330821579234E11 ; 0.0
116 ; 4.3879900647180334E7 ; 1.2106460876077943E9 ; 5.055599646063681E9 ; 1.303238907201306E11 ; 0.0
117 ; 4.384665593514E7 ; 1.2107096321343946E9 ; 5.099479546710861E9 ; 1.3153453680773839E11 ; 0.0
118 ; 4.3820277002823934E7 ; 1.2107731339533703E9 ; 5.143326202646001E9 ; 1.3274524643987279E11 ; 0.0
119 ; 4.3803634378000654E7 ; 1.2108365891801057E9 ; 5.187146479648825E9 ; 1.3395601957382616E11 ; 0.0
120 ; 4.378784561643636E7 ; 1.2108999940074363E9 ; 5.230950114026825E9 ; 1.3516685616300626E11 ; 0.0
121 ; 4.374903113513951E7 ; 1.2109633447031279E9 ; 5.274737959643261E9 ; 1.3637775615701369E11 ; 0.0
122 ; 4.3716065093868166E7 ; 1.2110266376074512E9 ; 5.3184869907784E9 ; 1.3758871950171683E11 ; 0.0
123 ; 4.369389957281559E7 ; 1.2110898691308515E9 ; 5.362203055872269E9 ; 1.3879974613932428E11 ; 0.0
124 ; 4.366710524585425E7 ; 1.2111530357517047E9 ; 5.405896955445085E9 ; 1.4001083600845514E11 ; 0.0
125 ; 4.363521421165905E7 ; 1.2112161340141635E9 ; 5.449564060690939E9 ; 1.4122198904420685E11 ; 0.0
126 ; 4.3597927271524236E7 ; 1.211279160526082E9 ; 5.493199274902598E9 ; 1.42433205178221E11 ; 0.0
127 ; 4.357353380856098E7 ; 1.2113421119570203E9 ; 5.536797202174123E9 ; 1.436444843387471E11 ; 0.0
128 ; 4.3541569817843735E7 ; 1.2114049850363252E9 ; 5.580370735982684E9 ; 1.4485582645070413E11 ; 0.0
129 ; 4.350856484599052E7 ; 1.2114677765512838E9 ; 5.623912305800528E9 ; 1.4606723143574045E11 ; 0.0
130 ; 4.347841576161714E7 ; 1.211530483345346E9 ; 5.667420870646518E9 ; 1.4727869921229172E11 ; 0.0
131 ; 4.3434198338567056E7 ; 1.2115931023164144E9 ; 5.710899286408134E9 ; 1.4849022969563705E11 ; 0.0
132 ; 4.338734196568237E7 ; 1.2116556304151993E9 ; 5.754333484746701E9 ; 1.4970182279795346E11 ; 0.0
133 ; 4.333871779804056E7 ; 1.2117180646436331E9 ; 5.797720826712383E9 ; 1.5091347842836865E11 ; 0.0
134 ; 4.330366941033473E7 ; 1.2117804020533464E9 ; 5.841059544510424E9 ; 1.521251964930123E11 ; 0.0
135 ; 4.32509295740814E7 ; 1.211842639744199E9 ; 5.884363213920758E9 ; 1.5333697689506564E11 ; 0.0
136 ; 4.319765885283006E7 ; 1.2119047748628674E9 ; 5.92761414349484E9 ; 1.5454881953480984E11 ; 0.0
137 ; 4.3159836288777314E7 ; 1.2119668046014814E9 ; 5.97081180234767E9 ; 1.557607243096727E11 ; 0.0
138 ; 4.3112562235544115E7 ; 1.2120287261963155E9 ; 6.013971638636447E9 ; 1.5697269111427417E11 ; 0.0
139 ; 4.306185948686696E7 ; 1.2120905369265242E9 ; 6.057084200871991E9 ; 1.581847198404705E11 ; 0.0
140 ; 4.3012139366134144E7 ; 1.2121522341129265E9 ; 6.100146060358858E9 ; 1.59396810377397E11 ; 0.0
141 ; 4.29646852067302E7 ; 1.212213815116834E9 ; 6.143158199724992E9 ; 1.6060896261150992E11 ; 0.0
142 ; 4.291434369363315E7 ; 1.212275277338921E9 ; 6.186122884931722E9 ; 1.6182117642662674E11 ; 0.0
143 ; 4.286626424664715E7 ; 1.212336618218137E9 ; 6.229037228625355E9 ; 1.6303345170396567E11 ; 0.0
144 ; 4.281832073419468E7 ; 1.2123978352306578E9 ; 6.271903492872002E9 ; 1.642457883221838E11 ; 0.0
145 ; 4.278612787084087E7 ; 1.2124589258888748E9 ; 6.314721813606196E9 ; 1.6545818615741446E11 ; 0.0
146 ; 4.275278550478342E7 ; 1.2125198877404206E9 ; 6.357507941477037E9 ; 1.6667064508330334E11 ; 0.0
147 ; 4.271848198695448E7 ; 1.2125807183672292E9 ; 6.400260726981821E9 ; 1.6788316497104376E11 ; 0.0
148 ; 4.268287086134135E7 ; 1.212641415384631E9 ; 6.442979208968776E9 ; 1.6909574568941098E11 ; 0.0
149 ; 4.2650315119132794E7 ; 1.2127019764404786E9 ; 6.485662079830117E9 ; 1.7030838710479562E11 ; 0.0
150 ; 4.2609370127190195E7 ; 1.2127623992143054E9 ; 6.52831239494925E9 ; 1.715210890812361E11 ; 0.0
151 ; 4.258076511323354E7 ; 1.2128226814165115E9 ; 6.570921765076441E9 ; 1.727338514804504E11 ; 0.0
152 ; 4.2551685521143496E7 ; 1.212882820787582E9 ; 6.613502530189674E9 ; 1.739466741618669E11 ; 0.0
153 ; 4.251147543174193E7 ; 1.2129428150973282E9 ; 6.656054215710818E9 ; 1.7515955698265448E11 ; 0.0
154 ; 4.247773032041271E7 ; 1.2130026621441612E9 ; 6.69856569114256E9 ; 1.763724997977518E11 ; 0.0
155 ; 4.244867165060485E7 ; 1.2130623597543848E9 ; 6.741043421462973E9 ; 1.7758550245989597E11 ; 0.0
156 ; 4.2410073701022536E7 ; 1.2131219057815173E9 ; 6.783492093113578E9 ; 1.7879856481965036E11 ; 0.0
157 ; 4.23759479400705E7 ; 1.2131812981056361E9 ; 6.8259021668146E9 ; 1.800116867254319E11 ; 0.0
158 ; 4.234250960548006E7 ; 1.213240534632744E9 ; 6.86827811475467E9 ; 1.812248680235375E11 ; 0.0
159 ; 4.2305081938037336E7 ; 1.2132996132941577E9 ; 6.91062062436015E9 ; 1.8243810855817026E11 ; 0.0
160 ; 4.226677241624655E7 ; 1.2133585320459177E9 ; 6.952925706298187E9 ; 1.8365140817146442E11 ; 0.0
161 ; 4.2237028456682555E7 ; 1.2134172888682194E9 ; 6.995192478714434E9 ; 1.8486476670351035E11 ; 0.0
162 ; 4.219868298344748E7 ; 1.2134758817648606E9 ; 7.037429507171116E9 ; 1.8607818399237857E11 ; 0.0
163 ; 4.2167571834190145E7 ; 1.2135343087627125E9 ; 7.079628190154563E9 ; 1.8729165987414343E11 ; 0.0
164 ; 4.212572295591474E7 ; 1.2135925679112048E9 ; 7.121795761988753E9 ; 1.8850519418290616E11 ; 0.0
165 ; 4.209642914356178E7 ; 1.2136506572818286E9 ; 7.163921484944668E9 ; 1.8971878675081735E11 ; 0.0
166 ; 4.205208753545734E7 ; 1.2137085749676597E9 ; 7.206017914088229E9 ; 1.9093243740809918E11 ; 0.0
167 ; 4.2012896566430174E7 ; 1.2137663190828931E9 ; 7.248070001623687E9 ; 1.9214614598306683E11 ; 0.0
168 ; 4.1979990098495364E7 ; 1.2138238877623966E9 ; 7.290082898190117E9 ; 1.9335991230214972E11 ; 0.0
169 ; 4.194658925539152E7 ; 1.2138812791612785E9 ; 7.332062888288612E9 ; 1.945737361899121E11 ; 0.0
170 ; 4.190378077457304E7 ; 1.2139384914544683E9 ; 7.3740094775440035E9 ; 1.957876174690734E11 ; 0.0
171 ; 4.1865810213796034E7 ; 1.2139955228363144E9 ; 7.415913258318577E9 ; 1.9700155596052786E11 ; 0.0
172 ; 4.182730150935424E7 ; 1.214052371520192E9 ; 7.457779068532372E9 ; 1.9821555148336417E11 ; 0.0
173 ; 4.179311414649541E7 ; 1.214109035738125E9 ; 7.499606370041727E9 ; 1.9942960385488437E11 ; 0.0
174 ; 4.177198131417931E7 ; 1.2141655137404232E9 ; 7.541399484188223E9 ; 2.006437128906225E11 ; 0.0
175 ; 4.174968528040682E7 ; 1.2142218037953258E9 ; 7.583171465502402E9 ; 2.018578784043629E11 ; 0.0
176 ; 4.173327258693197E7 ; 1.214277904188662E9 ; 7.624921150782809E9 ; 2.0307210020815823E11 ; 0.0
177 ; 4.17019392607043E7 ; 1.2143338132235208E9 ; 7.666654423369741E9 ; 2.042863781123469E11 ; 0.0
178 ; 4.16720372464344E7 ; 1.2143895292199295E9 ; 7.7083563626304455E9 ; 2.055007119255704E11 ; 0.0
179 ; 4.166179813644311E7 ; 1.2144450505145464E9 ; 7.75002839987688E9 ; 2.0671510145479034E11 ; 0.0
180 ; 4.163279303833997E7 ; 1.2145003754603612E9 ; 7.791690198013323E9 ; 2.079295465053049E11 ; 0.0
181 ; 4.160633645072328E7 ; 1.2145555024264054E9 ; 7.833322991051662E9 ; 2.0914404688076526E11 ; 0.0
182 ; 4.158808110662983E7 ; 1.2146104297974722E9 ; 7.874929327502386E9 ; 2.1035860238319165E11 ; 0.0
183 ; 4.15695103395963E7 ; 1.2146651559738455E9 ; 7.916517408609015E9 ; 2.1157321281298914E11 ; 0.0
184 ; 4.154857333947803E7 ; 1.214719679371038E9 ; 7.958086918948612E9 ; 2.1278787796896298E11 ; 0.0
185 ; 4.1523471949121654E7 ; 1.2147739984195378E9 ; 7.999635492288091E9 ; 2.14002597648334E11 ; 0.0
186 ; 4.1490756182326734E7 ; 1.2148281115645614E9 ; 8.041158964237212E9 ; 2.1521737164675354E11 ; 0.0
187 ; 4.147766315152067E7 ; 1.2148820172658167E9 ; 8.0826497204195385E9 ; 2.164321997583181E11 ; 0.0
188 ; 4.1455914483389124E7 ; 1.214935713997274E9 ; 8.124127383571059E9 ; 2.1764708177558392E11 ; 0.0
189 ; 4.143088531111283E7 ; 1.2149892002469401E9 ; 8.165583298054448E9 ; 2.188620174895812E11 ; 0.0
190 ; 4.140463179635173E7 ; 1.2150424745166452E9 ; 8.207014183365561E9 ; 2.2007700668982816E11 ; 0.0
191 ; 4.1377263039442755E7 ; 1.2150955353218331E9 ; 8.248418815161912E9 ; 2.212920491643448E11 ; 0.0
192 ; 4.135899322490454E7 ; 1.2151483811913588E9 ; 8.289796078201355E9 ; 2.2250714469966663E11 ; 0.0
193 ; 4.132948208155297E7 ; 1.2152010106672916E9 ; 8.33115507142626E9 ; 2.2372229308085797E11 ; 0.0
194 ; 4.131952290066451E7 ; 1.2152534223047276E9 ; 8.3724845535078125E9 ; 2.2493749409152527E11 ; 0.0
195 ; 4.128925130221497E7 ; 1.2153056146716034E9 ; 8.413804076408477E9 ; 2.2615274751383E11 ; 0.0
196 ; 4.1269845383344E7 ; 1.2153575863485198E9 ; 8.455093327710691E9 ; 2.273680531285016E11 ; 0.0
