CSV File for the Network on Day 327
1 - Minute m 
2 - Power Consumed at minute m 
3 - Power Produced at minute m 
4 - Energy Consumed since the beginning of the day 
5 - Energy Produced since the beginning of the day 
6 - Energy Lost since the beginning of the day 
 
0 ; 4581157.042467497 ; 2.1148961453928596E8 ; 0.0 ; 0.0 ; 0.0
1 ; 4587329.999078453 ; 2.1179539755466694E8 ; 4581157.042467497 ; 2.1148961453928596E8 ; 356.14
2 ; 4590318.072576334 ; 2.1271875891396028E8 ; 9168487.04154595 ; 4.232850120939529E8 ; 712.28
3 ; 4594162.743458127 ; 2.1425970076631212E8 ; 1.3758805114122283E7 ; 6.360037710079131E8 ; 1068.42
4 ; 4598981.770363703 ; 2.1641822502786648E8 ; 1.835296785758041E7 ; 8.502634717742252E8 ; 1424.56
5 ; 4603971.686725389 ; 2.1919433337453663E8 ; 2.295194962794411E7 ; 1.0666816968020917E9 ; 1780.6999999999998
6 ; 4607763.301406993 ; 2.2258802723560184E8 ; 2.75559213146695E7 ; 1.2858760301766284E9 ; 2136.8399999999997
7 ; 4611860.529993385 ; 2.2659930778818715E8 ; 3.216368461607649E7 ; 1.5084640574122303E9 ; 2492.9799999999996
8 ; 4613694.722211147 ; 2.3122817595267493E8 ; 3.677554514606988E7 ; 1.7350633652004175E9 ; 2849.1199999999994
9 ; 4620625.583886491 ; 2.3647463238909173E8 ; 4.138923986828102E7 ; 1.9662915411530924E9 ; 3205.2599999999993
10 ; 4623807.993529828 ; 2.4233867749450248E8 ; 4.600986545216751E7 ; 2.202766173542184E9 ; 3561.399999999999
11 ; 4624649.335748995 ; 2.4882031140143746E8 ; 5.063367344569734E7 ; 2.4451048510366864E9 ; 3917.539999999999
12 ; 4630135.739669713 ; 2.5591953397736633E8 ; 5.525832278144633E7 ; 2.6939251624381237E9 ; 4273.679999999999
13 ; 4633322.909983754 ; 2.6363634482522416E8 ; 5.988845852111604E7 ; 2.94984469641549E9 ; 4629.82
14 ; 4636133.65874659 ; 2.719707432849846E8 ; 6.4521781431099795E7 ; 3.213481041240714E9 ; 4985.96
15 ; 4641093.082685982 ; 2.80922728436265E8 ; 6.915791508984639E7 ; 3.4854517845256987E9 ; 5342.1
16 ; 4644775.414995046 ; 2.904922991019406E8 ; 7.379900817253236E7 ; 3.7663745129619637E9 ; 5698.240000000001
17 ; 4645588.182737128 ; 3.006794538527319E8 ; 7.844378358752741E7 ; 4.0568668120639043E9 ; 6054.380000000001
18 ; 4650503.129486365 ; 3.114841910127257E8 ; 8.308937177026454E7 ; 4.357546265916636E9 ; 6410.520000000001
19 ; 4654314.273740255 ; 3.2290650866577804E8 ; 8.77398748997509E7 ; 4.669030456929362E9 ; 6766.660000000002
20 ; 4657220.024674904 ; 3.349464046627427E8 ; 9.239418917349117E7 ; 4.99193696559514E9 ; 7122.800000000002
21 ; 4661460.40768003 ; 3.476038766294618E8 ; 9.705140919816607E7 ; 5.326883370257883E9 ; 7478.940000000002
22 ; 4666266.7372809965 ; 3.608789219754502E8 ; 1.017128696058461E8 ; 5.674487246887345E9 ; 7835.080000000003
23 ; 4669423.115574731 ; 3.74771537903201E8 ; 1.063791363431271E8 ; 6.035366168862796E9 ; 8191.220000000003
24 ; 4672155.6809137 ; 3.892817214180351E8 ; 1.1104855945870183E8 ; 6.410137706765997E9 ; 8547.360000000002
25 ; 4676239.935453268 ; 4.017855511347868E8 ; 1.1572071513961554E8 ; 6.799419428184032E9 ; 8903.500000000002
26 ; 4677154.351333974 ; 4.0179011936230016E8 ; 1.203969550750688E8 ; 7.201204979318819E9 ; 9259.640000000001
27 ; 4681285.265539465 ; 4.017949611642508E8 ; 1.2507410942640278E8 ; 7.602995098681119E9 ; 9615.78
28 ; 4684267.34282117 ; 4.018000728639364E8 ; 1.2975539469194224E8 ; 8.004790059845369E9 ; 9971.92
29 ; 4686191.814396607 ; 4.018054506421679E8 ; 1.3443966203476343E8 ; 8.406590132709306E9 ; 10328.06
30 ; 4691567.637682837 ; 4.018110905487511E8 ; 1.3912585384916005E8 ; 8.808395583351473E9 ; 10684.199999999999
31 ; 4693766.928968002 ; 4.018169885139791E8 ; 1.4381742148684287E8 ; 9.210206673900225E9 ; 11040.339999999998
32 ; 4697738.747063502 ; 4.0182314036006826E8 ; 1.4851118841581088E8 ; 9.612023662414204E9 ; 11396.479999999998
33 ; 4700501.329846857 ; 4.018295418124773E8 ; 1.5320892716287437E8 ; 1.0013846802774271E10 ; 11752.619999999997
34 ; 4703344.207426614 ; 4.018361885110493E8 ; 1.5790942849272123E8 ; 1.0415676344586748E10 ; 12108.759999999997
35 ; 4705892.762908998 ; 4.0184307602092695E8 ; 1.6261277270014784E8 ; 1.0817512533097797E10 ; 12464.899999999996
36 ; 4706908.857773104 ; 4.018501998431934E8 ; 1.6731866546305683E8 ; 1.1219355609118725E10 ; 12821.039999999995
37 ; 4709814.649916391 ; 4.0185755542519593E8 ; 1.7202557432082993E8 ; 1.1621205808961918E10 ; 13177.179999999995
38 ; 4712197.835057041 ; 4.018651381705175E8 ; 1.767353889707463E8 ; 1.2023063364387114E10 ; 13533.319999999994
39 ; 4714087.384236417 ; 4.01872943448566E8 ; 1.8144758680580336E8 ; 1.242492850255763E10 ; 13889.459999999994
40 ; 4715747.94978861 ; 4.018809666037533E8 ; 1.8616167419003978E8 ; 1.2826801446006197E10 ; 14245.599999999993
41 ; 4719743.017349271 ; 4.0188920296424615E8 ; 1.9087742213982838E8 ; 1.3228682412609951E10 ; 14601.739999999993
42 ; 4721479.374444036 ; 4.0189764785027117E8 ; 1.9559716515717766E8 ; 1.3630571615574198E10 ; 14957.879999999992
43 ; 4723081.226029314 ; 4.0190629658196443E8 ; 2.003186445316217E8 ; 1.4032469263424469E10 ; 15314.019999999991
44 ; 4724171.975856361 ; 4.019151444867574E8 ; 2.05041725757651E8 ; 1.4434375560006433E10 ; 15670.15999999999
45 ; 4727463.026037877 ; 4.019241869062969E8 ; 2.0976589773350736E8 ; 1.483629070449319E10 ; 16026.29999999999
46 ; 4729734.968746586 ; 4.0193341920289916E8 ; 2.1449336075954524E8 ; 1.5238214891399488E10 ; 16382.43999999999
47 ; 4731943.990147704 ; 4.0194283676554203E8 ; 2.192230957282918E8 ; 1.5640148310602388E10 ; 16738.57999999999
48 ; 4733480.28258526 ; 4.0195243501540166E8 ; 2.2395503971843952E8 ; 1.6042091147367931E10 ; 17094.71999999999
49 ; 4734535.463117128 ; 4.019622094109429E8 ; 2.2868852000102478E8 ; 1.6444043582383333E10 ; 17450.85999999999
50 ; 4735001.379527279 ; 4.019721554525744E8 ; 2.334230554641419E8 ; 1.6846005791794275E10 ; 17806.99999999999
51 ; 4737622.846497572 ; 4.019822686868813E8 ; 2.3815805684366918E8 ; 1.724797794724685E10 ; 18163.13999999999
52 ; 4736706.657118183 ; 4.019925447104512E8 ; 2.4289567969016674E8 ; 1.764996021593373E10 ; 18519.279999999988
53 ; 4739376.656557039 ; 4.0200297917330754E8 ; 2.476323863472849E8 ; 1.8051952760644184E10 ; 18875.419999999987
54 ; 4740953.6252690395 ; 4.020135677819685E8 ; 2.5237176300384197E8 ; 1.8453955739817493E10 ; 19231.559999999987
55 ; 4742669.600049436 ; 4.020243063021487E8 ; 2.57112716629111E8 ; 1.885596930759946E10 ; 19587.699999999986
56 ; 4743995.155794884 ; 4.020351905611213E8 ; 2.6185538622916043E8 ; 1.9257993613901608E10 ; 19943.839999999986
57 ; 4743861.123194278 ; 4.02046216449759E8 ; 2.6659938138495532E8 ; 1.966002880446273E10 ; 20299.979999999985
58 ; 4745291.744936274 ; 4.0205737992427325E8 ; 2.713432425081496E8 ; 2.006207502091249E10 ; 20656.119999999984
59 ; 4748873.281203055 ; 4.020686770076684E8 ; 2.760885342530859E8 ; 2.0464132400836765E10 ; 21012.259999999984
60 ; 4749556.00931282 ; 4.020801037909303E8 ; 2.8083740753428894E8 ; 2.0866201077844433E10 ; 21368.399999999983
61 ; 4751227.490485452 ; 4.0209165643396765E8 ; 2.8558696354360175E8 ; 2.1268281181635365E10 ; 21724.539999999983
62 ; 4753977.918543299 ; 4.021033311663219E8 ; 2.903381910340872E8 ; 2.1670372838069332E10 ; 22080.679999999982
63 ; 4751110.005122627 ; 4.02115124287664E8 ; 2.9509216895263046E8 ; 2.2072476169235653E10 ; 22436.81999999998
64 ; 4753877.558522237 ; 4.02127032168095E8 ; 2.9984327895775306E8 ; 2.2474591293523315E10 ; 22792.95999999998
65 ; 4758367.8867685255 ; 4.0213905124826443E8 ; 3.045971565162753E8 ; 2.287671832569141E10 ; 23149.09999999998
66 ; 4756188.745595148 ; 4.0215117803932357E8 ; 3.093555244030438E8 ; 2.3278857376939674E10 ; 23505.23999999998
67 ; 4757171.757769504 ; 4.021634091227275E8 ; 3.1411171314863896E8 ; 2.3681008554978996E10 ; 23861.37999999998
68 ; 4759090.774346378 ; 4.021757411498989E8 ; 3.188688849064085E8 ; 2.4083171964101723E10 ; 24217.51999999998
69 ; 4759048.780686394 ; 4.02188170841768E8 ; 3.2362797568075484E8 ; 2.448534770525162E10 ; 24573.659999999978
70 ; 4759292.909926928 ; 4.022006949882009E8 ; 3.283870244614412E8 ; 2.4887535876093388E10 ; 24929.799999999977
71 ; 4760150.968078044 ; 4.022133104473259E8 ; 3.3314631737136817E8 ; 2.528973657108159E10 ; 25285.939999999977
72 ; 4760945.542943272 ; 4.022260141447722E8 ; 3.379064683394462E8 ; 2.5691949881528915E10 ; 25642.079999999976
73 ; 4762846.437274946 ; 4.0223880307282835E8 ; 3.426674138823895E8 ; 2.6094175895673687E10 ; 25998.219999999976
74 ; 4761475.703061747 ; 4.022516742895311E8 ; 3.474302603196644E8 ; 2.6496414698746517E10 ; 26354.359999999975
75 ; 4763105.129453217 ; 4.022646249176938E8 ; 3.521917360227262E8 ; 2.689866637303605E10 ; 26710.499999999975
76 ; 4764569.286996334 ; 4.0227765214388186E8 ; 3.569548411521794E8 ; 2.7300930997953743E10 ; 27066.639999999974
77 ; 4764734.237163519 ; 4.0229075321734387E8 ; 3.617194104391757E8 ; 2.7703208650097626E10 ; 27422.779999999973
78 ; 4764071.187475363 ; 4.023039254489044E8 ; 3.6648414467633927E8 ; 2.810549940331497E10 ; 27778.919999999973
79 ; 4763097.80876812 ; 4.023171662098258E8 ; 3.7124821586381465E8 ; 2.8507803328763874E10 ; 28135.059999999972
80 ; 4765239.864327521 ; 4.023304729306447E8 ; 3.7601131367258275E8 ; 2.89101204949737E10 ; 28491.19999999997
81 ; 4766562.445213702 ; 4.023438430999883E8 ; 3.807765535369103E8 ; 2.9312450967904346E10 ; 28847.33999999997
82 ; 4766080.174569595 ; 4.023572742633761E8 ; 3.85543115982124E8 ; 2.9714794811004333E10 ; 29203.47999999997
83 ; 4766101.944729131 ; 4.0237076402201164E8 ; 3.903091961566936E8 ; 3.0117152085267708E10 ; 29559.61999999997
84 ; 4766777.381539533 ; 4.023843100315669E8 ; 3.950752981014227E8 ; 3.051952284928972E10 ; 29915.75999999997
85 ; 4768416.135712935 ; 4.0239791000096583E8 ; 3.9984207548296225E8 ; 3.0921907159321285E10 ; 30271.89999999997
86 ; 4768253.916568211 ; 4.0241156169116724E8 ; 4.046104916186752E8 ; 3.132430506932225E10 ; 30628.039999999968
87 ; 4769386.008462487 ; 4.0242526291395307E8 ; 4.093787455352434E8 ; 3.1726716631013416E10 ; 30984.179999999968
88 ; 4768759.998969985 ; 4.0243901153072214E8 ; 4.141481315437059E8 ; 3.212914189392737E10 ; 31340.319999999967
89 ; 4767943.116529347 ; 4.024528054512938E8 ; 4.1891689154267585E8 ; 3.253158090545809E10 ; 31696.459999999966
90 ; 4770167.059670367 ; 4.0246664263272244E8 ; 4.236848346592052E8 ; 3.2934033710909386E10 ; 32052.599999999966
91 ; 4769073.093667983 ; 4.02480521078125E8 ; 4.284550017188756E8 ; 3.3336500353542107E10 ; 32408.739999999965
92 ; 4768778.972781265 ; 4.024944388355237E8 ; 4.332240748125436E8 ; 3.373898087462023E10 ; 32764.879999999965
93 ; 4772536.461928016 ; 4.0250839399670494E8 ; 4.379928537853248E8 ; 3.4141475313455757E10 ; 33121.01999999997
94 ; 4768547.623238228 ; 4.025223846960949E8 ; 4.427653902472528E8 ; 3.454398370745246E10 ; 33477.15999999997
95 ; 4768586.944128902 ; 4.0253640910965496E8 ; 4.47533937870491E8 ; 3.494650609214856E10 ; 33833.29999999997
96 ; 4767376.547176739 ; 4.025504654537956E8 ; 4.5230252481461996E8 ; 3.534904250125822E10 ; 34189.439999999966
97 ; 4768166.258922462 ; 4.0256455198431104E8 ; 4.570699013617967E8 ; 3.575159296671201E10 ; 34545.579999999965
98 ; 4770636.660632332 ; 4.0257866699533445E8 ; 4.6183806762071913E8 ; 3.615415751869633E10 ; 34901.719999999965
99 ; 4770279.766178799 ; 4.0259280881831473E8 ; 4.6660870428135145E8 ; 3.655673618569166E10 ; 35257.859999999964
100 ; 4767733.78791091 ; 4.0260697582101476E8 ; 4.7137898404753023E8 ; 3.695932899450997E10 ; 35613.99999999996
101 ; 4768994.306270965 ; 4.0262116640653217E8 ; 4.761467178354412E8 ; 3.7361935970330986E10 ; 35970.13999999996
102 ; 4769212.670665765 ; 4.0263537901234144E8 ; 4.809157121417121E8 ; 3.776455713673752E10 ; 36326.27999999996
103 ; 4767774.379610117 ; 4.0264961210935926E8 ; 4.8568492481237787E8 ; 3.816719251574986E10 ; 36682.41999999996
104 ; 4767384.97340422 ; 4.026638642010318E8 ; 4.90452699191988E8 ; 3.856984212785922E10 ; 37038.55999999996
105 ; 4767262.118317074 ; 4.026781338224441E8 ; 4.952200841653922E8 ; 3.897250599206026E10 ; 37394.69999999996
106 ; 4765735.796724305 ; 4.026924195394521E8 ; 4.999873462837093E8 ; 3.93751841258827E10 ; 37750.83999999996
107 ; 4766432.856147586 ; 4.0270671994783664E8 ; 5.047530820804336E8 ; 3.977787654542215E10 ; 38106.97999999996
108 ; 4765049.28726743 ; 4.0272103367247915E8 ; 5.095195149365812E8 ; 4.018058326536999E10 ; 38463.11999999996
109 ; 4767786.003350502 ; 4.0273535936655927E8 ; 5.1428456422384864E8 ; 4.0583304299042465E10 ; 38819.25999999996
110 ; 4764883.186076757 ; 4.027496957107738E8 ; 5.1905235022719914E8 ; 4.098603965840903E10 ; 39175.39999999996
111 ; 4765845.590325257 ; 4.02764041412577E8 ; 5.238172334132759E8 ; 4.1388789354119804E10 ; 39531.53999999996
112 ; 4765749.875967651 ; 4.027783952054409E8 ; 5.2858307900360113E8 ; 4.179155339553238E10 ; 39887.67999999996
113 ; 4764335.885428978 ; 4.0279275584813714E8 ; 5.3334882887956876E8 ; 4.219433179073782E10 ; 40243.819999999956
114 ; 4763039.872337985 ; 4.0280712212403846E8 ; 5.381131647649977E8 ; 4.259712454658596E10 ; 40599.959999999955
115 ; 4761573.997694928 ; 4.028214928404393E8 ; 5.428762046373357E8 ; 4.299993166871E10 ; 40956.099999999955
116 ; 4760716.947098606 ; 4.0283586682789683E8 ; 5.476377786350306E8 ; 4.340275316155044E10 ; 41312.239999999954
117 ; 4759118.765864747 ; 4.028502429395902E8 ; 5.523984955821292E8 ; 4.3805589028378334E10 ; 41668.379999999954
118 ; 4760281.950013565 ; 4.0286462005069834E8 ; 5.57157614347994E8 ; 4.4208439271317924E10 ; 42024.51999999995
119 ; 4760464.9921060465 ; 4.0287899705779624E8 ; 5.619178962980075E8 ; 4.461130389136862E10 ; 42380.65999999995
120 ; 4757720.601897419 ; 4.028933728782684E8 ; 5.666783612901136E8 ; 4.5014182888426414E10 ; 42736.79999999995
121 ; 4757176.752399635 ; 4.029077464497402E8 ; 5.71436081892011E8 ; 4.541707626130468E10 ; 43092.93999999995
122 ; 4757727.848813208 ; 4.029221167295252E8 ; 5.761932586444107E8 ; 4.581998400775442E10 ; 43449.07999999995
123 ; 4754538.324993641 ; 4.0293648269409E8 ; 5.809509864932239E8 ; 4.622290612448394E10 ; 43805.21999999995
124 ; 4751684.337311346 ; 4.029508433385341E8 ; 5.857055248182175E8 ; 4.662584260717803E10 ; 44161.35999999995
125 ; 4750330.323794798 ; 4.029651976760857E8 ; 5.904572091555289E8 ; 4.702879345051656E10 ; 44517.49999999995
126 ; 4750699.771391452 ; 4.029795447376131E8 ; 5.952075394793237E8 ; 4.743175864819265E10 ; 44873.63999999995
127 ; 4748528.048305409 ; 4.029938835711498E8 ; 5.999582392507153E8 ; 4.783473819293026E10 ; 45229.77999999995
128 ; 4745168.8644456575 ; 4.030082132414354E8 ; 6.047067672990206E8 ; 4.823773207650141E10 ; 45585.91999999995
129 ; 4743832.105757596 ; 4.030225328294691E8 ; 6.094519361634663E8 ; 4.864074028974284E10 ; 45942.05999999995
130 ; 4738807.391778379 ; 4.030368414320774E8 ; 6.141957682692239E8 ; 4.904376282257231E10 ; 46298.199999999946
131 ; 4739726.171468321 ; 4.030511381614952E8 ; 6.189345756610023E8 ; 4.944679966400439E10 ; 46654.339999999946
132 ; 4734660.174872202 ; 4.03065422144959E8 ; 6.236743018324707E8 ; 4.984985080216588E10 ; 47010.479999999945
133 ; 4734631.374712954 ; 4.0307969252431333E8 ; 6.284089620073428E8 ; 5.025291622431084E10 ; 47366.619999999944
134 ; 4734491.541977788 ; 4.030939484556284E8 ; 6.331435933820558E8 ; 5.065599591683515E10 ; 47722.759999999944
135 ; 4732917.700266766 ; 4.031081891088303E8 ; 6.378780849240335E8 ; 5.105908986529078E10 ; 48078.89999999994
136 ; 4732455.576560183 ; 4.0312241366734177E8 ; 6.426110026243002E8 ; 5.146219805439961E10 ; 48435.03999999994
137 ; 4729932.306370886 ; 4.031366213277347E8 ; 6.473434582008604E8 ; 5.1865320468066956E10 ; 48791.17999999994
138 ; 4730134.884445941 ; 4.031508112993927E8 ; 6.520733905072312E8 ; 5.226845708939469E10 ; 49147.31999999994
139 ; 4726171.074359536 ; 4.0316498280418456E8 ; 6.568035253916771E8 ; 5.2671607900694084E10 ; 49503.45999999994
140 ; 4727447.289439013 ; 4.03179135076147E8 ; 6.615296964660367E8 ; 5.307477288349827E10 ; 49859.59999999994
141 ; 4724521.346169411 ; 4.031932673611784E8 ; 6.662571437554756E8 ; 5.347795201857442E10 ; 50215.73999999994
142 ; 4721447.630588405 ; 4.0320737891674066E8 ; 6.70981665101645E8 ; 5.388114528593559E10 ; 50571.87999999994
143 ; 4719946.252471426 ; 4.032214690115707E8 ; 6.757031127322334E8 ; 5.428435266485233E10 ; 50928.01999999994
144 ; 4716751.166672736 ; 4.0323553692540133E8 ; 6.804230589847049E8 ; 5.468757413386391E10 ; 51284.15999999994
145 ; 4715565.783365077 ; 4.0324958194869006E8 ; 6.851398101513776E8 ; 5.509080967078931E10 ; 51640.29999999994
146 ; 4716312.416627489 ; 4.0326360338235605E8 ; 6.898553759347427E8 ; 5.5494059252738E10 ; 51996.43999999994
147 ; 4716567.284908944 ; 4.0327760053752625E8 ; 6.945716883513702E8 ; 5.589732285612035E10 ; 52352.579999999936
148 ; 4715475.730153142 ; 4.0329157273528785E8 ; 6.992882556362791E8 ; 5.630060045665788E10 ; 52708.719999999936
149 ; 4717907.010710293 ; 4.033055193064495E8 ; 7.040037313664322E8 ; 5.670389202939317E10 ; 53064.859999999935
150 ; 4714918.264408275 ; 4.033194395913091E8 ; 7.087216383771424E8 ; 5.710719754869962E10 ; 53420.999999999935
151 ; 4713332.031581701 ; 4.033333329394293E8 ; 7.134365566415507E8 ; 5.751051698829093E10 ; 53777.139999999934
152 ; 4714606.195512434 ; 4.03347198709419E8 ; 7.181498886731324E8 ; 5.791385032123036E10 ; 54133.27999999993
153 ; 4715467.6234594425 ; 4.033610362687228E8 ; 7.228644948686448E8 ; 5.831719751993978E10 ; 54489.41999999993
154 ; 4714054.528299825 ; 4.0337484499341524E8 ; 7.275799624921043E8 ; 5.87205585562085E10 ; 54845.55999999993
155 ; 4714403.505974755 ; 4.0338862426800287E8 ; 7.322940170204041E8 ; 5.912393340120192E10 ; 55201.69999999993
156 ; 4714626.736806975 ; 4.0340237348523116E8 ; 7.370084205263789E8 ; 5.9527322025469925E10 ; 55557.83999999993
157 ; 4713825.865911448 ; 4.034160920458982E8 ; 7.417230472631859E8 ; 5.9930724398955154E10 ; 55913.97999999993
158 ; 4713595.468142045 ; 4.034297793586733E8 ; 7.464368731290973E8 ; 6.033414049100105E10 ; 56270.11999999993
159 ; 4713581.652671343 ; 4.0344343483992124E8 ; 7.511504685972394E8 ; 6.0737570270359726E10 ; 56626.25999999993
160 ; 4713153.337796619 ; 4.034570579135325E8 ; 7.558640502499107E8 ; 6.1141013705199646E10 ; 56982.39999999993
161 ; 4714643.508704561 ; 4.034706480107576E8 ; 7.605772035877073E8 ; 6.154447076311318E10 ; 57338.53999999993
162 ; 4712338.689579593 ; 4.0348420457004714E8 ; 7.652918470964118E8 ; 6.194794141112394E10 ; 57694.67999999993
163 ; 4711430.323788674 ; 4.0349772703689647E8 ; 7.700041857859914E8 ; 6.2351425615693985E10 ; 58050.81999999993
164 ; 4711713.419286152 ; 4.035112148636949E8 ; 7.747156161097801E8 ; 6.275492334273088E10 ; 58406.95999999993
165 ; 4712310.178251526 ; 4.0352466750957954E8 ; 7.794273295290662E8 ; 6.3158434557594574E10 ; 58763.099999999926
166 ; 4709564.761710242 ; 4.0353808444029355E8 ; 7.841396397073177E8 ; 6.356195922510416E10 ; 59119.239999999925
167 ; 4708219.943230586 ; 4.0355146512804866E8 ; 7.88849204469028E8 ; 6.396549730954445E10 ; 59475.379999999925
168 ; 4707410.563228879 ; 4.035648090513915E8 ; 7.935574244122586E8 ; 6.43690487746725E10 ; 59831.519999999924
169 ; 4708130.4034552835 ; 4.0357811569507444E8 ; 7.982648349754875E8 ; 6.477261358372389E10 ; 60187.65999999992
170 ; 4707986.300403611 ; 4.035913845499297E8 ; 8.029729653789427E8 ; 6.517619169941897E10 ; 60543.79999999992
171 ; 4706390.333959391 ; 4.036046151127475E8 ; 8.076809516793463E8 ; 6.5579783083968895E10 ; 60899.93999999992
172 ; 4706180.325869468 ; 4.0361780688615793E8 ; 8.123873420133057E8 ; 6.598338769908164E10 ; 61256.07999999992
173 ; 4705125.085670394 ; 4.036309593785161E8 ; 8.170935223391751E8 ; 6.63870055059678E10 ; 61612.21999999992
174 ; 4705292.913060175 ; 4.0364407210379064E8 ; 8.217986474248455E8 ; 6.679063646534631E10 ; 61968.35999999992
175 ; 4706912.983879534 ; 4.036571445814557E8 ; 8.265039403379056E8 ; 6.71942805374501E10 ; 62324.49999999992
176 ; 4711971.427162892 ; 4.036701763363861E8 ; 8.312108533217852E8 ; 6.759793768203156E10 ; 62680.63999999992
177 ; 4711094.682633374 ; 4.036831668987553E8 ; 8.359228247489481E8 ; 6.800160785836795E10 ; 63036.77999999992
