CSV File for the Network on Day 12
1 - Minute m 
2 - Power Consumed at minute m 
3 - Power Produced at minute m 
4 - Energy Consumed since the beginning of the day 
5 - Energy Produced since the beginning of the day 
6 - Energy Lost since the beginning of the day 
 
0 ; 3.842346232097101E7 ; 6.322105606128393E8 ; 0.0 ; 0.0 ; 0.0
1 ; 3.846380257189657E7 ; 6.331060066736197E8 ; 3.842346232097101E7 ; 6.322105606128393E8 ; 0.0
2 ; 3.850669409413195E7 ; 6.358558416686314E8 ; 7.688726489286758E7 ; 1.265316567286459E9 ; 0.0
3 ; 3.855322097402115E7 ; 6.404602513362434E8 ; 1.1539395898699953E8 ; 1.9011724089550905E9 ; 0.0
4 ; 3.860818065641288E7 ; 6.469194189279156E8 ; 1.5394717996102068E8 ; 2.541632660291334E9 ; 0.0
5 ; 3.8681332783541635E7 ; 6.552335203134621E8 ; 1.9255536061743355E8 ; 3.1885520792192497E9 ; 0.0
6 ; 3.877149584057991E7 ; 6.654027184579644E8 ; 2.3123669340097517E8 ; 3.843785599532712E9 ; 0.0
7 ; 3.889809479327952E7 ; 6.774271575564529E8 ; 2.700081892415551E8 ; 4.509188317990677E9 ; 0.0
8 ; 3.908331294554106E7 ; 6.913069572265481E8 ; 3.089062840348346E8 ; 5.18661547554713E9 ; 0.0
9 ; 3.936648219278083E7 ; 7.070422072401444E8 ; 3.479895969803757E8 ; 5.877922432773678E9 ; 0.0
10 ; 3.979805002904278E7 ; 7.246329632959752E8 ; 3.8735607917315656E8 ; 6.584964640013823E9 ; 0.0
11 ; 4.048327537720871E7 ; 7.440792442771816E8 ; 4.2715412920219934E8 ; 7.309597603309797E9 ; 0.0
12 ; 4.159116919973859E7 ; 7.653810313006222E8 ; 4.6763740457940805E8 ; 8.053676847586979E9 ; 0.0
13 ; 4.266050385480875E7 ; 7.885382686675639E8 ; 5.092285737791467E8 ; 8.819057878887602E9 ; 0.0
14 ; 4.278056115676653E7 ; 8.135508666061127E8 ; 5.518890776339555E8 ; 9.607596147555166E9 ; 0.0
15 ; 4.282822638826719E7 ; 8.404187054986472E8 ; 5.94669638790722E8 ; 1.042114701416128E10 ; 0.0
16 ; 4.288756442501507E7 ; 8.69141641150138E8 ; 6.374978651789892E8 ; 1.1261565719659927E10 ; 0.0
17 ; 4.293148729074921E7 ; 8.997195105955027E8 ; 6.803854296040043E8 ; 1.2130707360810066E10 ; 0.0
18 ; 4.298301898924976E7 ; 9.321521379649277E8 ; 7.233169168947535E8 ; 1.303042687140557E10 ; 0.0
19 ; 4.303073817946841E7 ; 9.664393400069531E8 ; 7.662999358840032E8 ; 1.3962579009370497E10 ; 0.0
20 ; 4.307875875832326E7 ; 1.0025809309832095E9 ; 8.093306740634716E8 ; 1.4929018349377449E10 ; 0.0
21 ; 4.312746951891871E7 ; 1.0405767267694173E9 ; 8.524094328217949E8 ; 1.5931599280360659E10 ; 0.0
22 ; 4.317307824602534E7 ; 1.0804265481045945E9 ; 8.955369023407136E8 ; 1.6972176007130075E10 ; 0.0
23 ; 4.323186678841578E7 ; 1.1221302230131977E9 ; 9.38709980586739E8 ; 1.805260255523467E10 ; 0.0
24 ; 4.328386865169066E7 ; 1.1656875884799716E9 ; 9.819418473751547E8 ; 1.9174732778247868E10 ; 0.0
25 ; 4.333054297991703E7 ; 1.203226736876251E9 ; 1.0252257160268455E9 ; 2.034042036672784E10 ; 0.0
26 ; 4.3375692547363974E7 ; 1.2032688127005093E9 ; 1.0685562590067625E9 ; 2.154364710360409E10 ; 0.0
27 ; 4.3425439368331656E7 ; 1.203312299844869E9 ; 1.1119319515541265E9 ; 2.27469159163046E10 ; 0.0
28 ; 4.347438831813663E7 ; 1.2033570768947942E9 ; 1.1553573909224582E9 ; 2.3950228216149467E10 ; 0.0
29 ; 4.351444385091143E7 ; 1.2034030324978933E9 ; 1.1988317792405949E9 ; 2.5153585293044262E10 ; 0.0
30 ; 4.3564412276222914E7 ; 1.2034500648352013E9 ; 1.2423462230915062E9 ; 2.6356988325542156E10 ; 0.0
31 ; 4.36111593237149E7 ; 1.203498081010404E9 ; 1.2859106353677292E9 ; 2.7560438390377357E10 ; 0.0
32 ; 4.365279710058086E7 ; 1.2035469963992512E9 ; 1.3295217946914442E9 ; 2.876393647138776E10 ; 0.0
33 ; 4.369968823187336E7 ; 1.20359673398989E9 ; 1.373174591792025E9 ; 2.996748346778701E10 ; 0.0
34 ; 4.374461320934344E7 ; 1.2036472237356534E9 ; 1.4168742800238984E9 ; 3.11710802017769E10 ; 0.0
35 ; 4.3781645668549575E7 ; 1.203698401934634E9 ; 1.4606188932332418E9 ; 3.2374727425512554E10 ; 0.0
36 ; 4.3821132720364876E7 ; 1.2037502106449661E9 ; 1.5044005389017913E9 ; 3.357842582744719E10 ; 0.0
37 ; 4.386815485464239E7 ; 1.2038025971407316E9 ; 1.5482216716221561E9 ; 3.4782176038092155E10 ; 0.0
38 ; 4.3892430236544035E7 ; 1.2038555134105468E9 ; 1.5920898264767985E9 ; 3.598597863523289E10 ; 0.0
39 ; 4.393048954707158E7 ; 1.2039089156988988E9 ; 1.6359822567133427E9 ; 3.718983414864343E10 ; 0.0
40 ; 4.396625202544223E7 ; 1.2039627640889795E9 ; 1.6799127462604144E9 ; 3.839374306434233E10 ; 0.0
41 ; 4.399311632783041E7 ; 1.2040170221249099E9 ; 1.7238789982858565E9 ; 3.959770582843131E10 ; 0.0
42 ; 4.4023523296280146E7 ; 1.2040716564707818E9 ; 1.7678721146136868E9 ; 4.080172285055622E10 ; 0.0
43 ; 4.405243834741155E7 ; 1.2041266366036882E9 ; 1.811895637909967E9 ; 4.2005794507027E10 ; 0.0
44 ; 4.408512214920088E7 ; 1.20418193453786E9 ; 1.8559480762573786E9 ; 4.320992114363069E10 ; 0.0
45 ; 4.410463514335306E7 ; 1.2042375245770693E9 ; 1.9000331984065795E9 ; 4.441410307816855E10 ; 0.0
46 ; 4.412527941954062E7 ; 1.204293383092596E9 ; 1.9441378335499325E9 ; 4.561834060274562E10 ; 0.0
47 ; 4.4150263259304136E7 ; 1.2043494883241987E9 ; 1.9882631129694731E9 ; 4.682263398583822E10 ; 0.0
48 ; 4.416283385387347E7 ; 1.204405820201748E9 ; 2.0324133762287772E9 ; 4.8026983474162415E10 ; 0.0
49 ; 4.418151775413209E7 ; 1.204462360185356E9 ; 2.0765762100826507E9 ; 4.923138929436417E10 ; 0.0
50 ; 4.4191831199734874E7 ; 1.2045190911220498E9 ; 2.1207577278367827E9 ; 5.043585165454952E10 ; 0.0
51 ; 4.420740021848723E7 ; 1.204575997117215E9 ; 2.1649495590365176E9 ; 5.164037074567157E10 ; 0.0
52 ; 4.421782572346662E7 ; 1.2046330634192185E9 ; 2.209156959255005E9 ; 5.284494674278879E10 ; 0.0
53 ; 4.42244554321111E7 ; 1.2046902763157918E9 ; 2.2533747849784713E9 ; 5.404957980620801E10 ; 0.0
54 ; 4.4241835052591525E7 ; 1.2047476230408978E9 ; 2.2975992404105825E9 ; 5.5254270082523796E10 ; 0.0
55 ; 4.42493244421678E7 ; 1.2048050916909463E9 ; 2.341841075463174E9 ; 5.64590177055647E10 ; 0.0
56 ; 4.427125205911952E7 ; 1.2048626711493564E9 ; 2.3860903999053416E9 ; 5.7663822797255646E10 ; 0.0
57 ; 4.427204070513537E7 ; 1.204920351018559E9 ; 2.4303616519644613E9 ; 5.8868685468405E10 ; 0.0
58 ; 4.428312968887422E7 ; 1.2049781215586495E9 ; 2.4746336926695967E9 ; 6.007360581942356E10 ; 0.0
59 ; 4.4293445248940356E7 ; 1.2050359736319811E9 ; 2.518916822358471E9 ; 6.127858394098221E10 ; 0.0
60 ; 4.4294926576128826E7 ; 1.205093898653067E9 ; 2.5632102676074114E9 ; 6.248361991461419E10 ; 0.0
61 ; 4.4306662361133456E7 ; 1.2051518885432372E9 ; 2.6075051941835403E9 ; 6.368871381326726E10 ; 0.0
62 ; 4.4310146391731635E7 ; 1.2052099356895509E9 ; 2.651811856544674E9 ; 6.489386570181049E10 ; 0.0
63 ; 4.43291457276422E7 ; 1.2052680329075286E9 ; 2.6961220029364057E9 ; 6.6099075637500046E10 ; 0.0
64 ; 4.432413421223817E7 ; 1.2053261734073038E9 ; 2.7404511486640477E9 ; 6.730434367040758E10 ; 0.0
65 ; 4.433538781931255E7 ; 1.2053843507628555E9 ; 2.784775282876286E9 ; 6.850966984381488E10 ; 0.0
66 ; 4.4342386784095146E7 ; 1.2054425588840039E9 ; 2.8291106706955986E9 ; 6.971505419457773E10 ; 0.0
67 ; 4.4346840923096016E7 ; 1.2055007919908957E9 ; 2.873453057479694E9 ; 7.092049675346173E10 ; 0.0
68 ; 4.4352443986075155E7 ; 1.2055590445907335E9 ; 2.91779989840279E9 ; 7.212599754545262E10 ; 0.0
69 ; 4.436000474915233E7 ; 1.2056173114565277E9 ; 2.962152342388865E9 ; 7.333155659004335E10 ; 0.0
70 ; 4.436131775340137E7 ; 1.2056755876076736E9 ; 3.006512347138017E9 ; 7.453717390149988E10 ; 0.0
71 ; 4.4367389352789864E7 ; 1.205733868292182E9 ; 3.0508736648914185E9 ; 7.574284948910754E10 ; 0.0
72 ; 4.4366175456839174E7 ; 1.205792148970401E9 ; 3.0952410542442083E9 ; 7.694858335739972E10 ; 0.0
73 ; 4.437066670507742E7 ; 1.2058504253000934E9 ; 3.1396072297010474E9 ; 7.815437550637012E10 ; 0.0
74 ; 4.437181262049438E7 ; 1.2059086931227374E9 ; 3.183977896406125E9 ; 7.936022593167021E10 ; 0.0
75 ; 4.437756617722803E7 ; 1.2059669484509459E9 ; 3.2283497090266194E9 ; 8.056613462479295E10 ; 0.0
76 ; 4.437830297987934E7 ; 1.20602518745689E9 ; 3.2727272752038474E9 ; 8.17721015732439E10 ; 0.0
77 ; 4.437566032610367E7 ; 1.2060834064616516E9 ; 3.317105578183727E9 ; 8.297812676070079E10 ; 0.0
78 ; 4.437325599436603E7 ; 1.206141601925406E9 ; 3.3614812385098305E9 ; 8.418421016716245E10 ; 0.0
79 ; 4.4354262019734986E7 ; 1.2061997704383717E9 ; 3.4058544945041966E9 ; 8.539035176908784E10 ; 0.0
80 ; 4.434513845165594E7 ; 1.2062579087124581E9 ; 3.4502087565239315E9 ; 8.659655153952621E10 ; 0.0
81 ; 4.432660432769579E7 ; 1.2063160135735435E9 ; 3.4945538949755874E9 ; 8.780280944823868E10 ; 0.0
82 ; 4.432062944839945E7 ; 1.2063740819543412E9 ; 3.538880499303283E9 ; 8.900912546181223E10 ; 0.0
83 ; 4.4311267116494834E7 ; 1.206432110887793E9 ; 3.5832011287516828E9 ; 9.021549954376657E10 ; 0.0
84 ; 4.4291591391744696E7 ; 1.2064900975009513E9 ; 3.6275123958681774E9 ; 9.142193165465436E10 ; 0.0
85 ; 4.427889008963284E7 ; 1.206548039009306E9 ; 3.671803987259922E9 ; 9.26284217521553E10 ; 0.0
86 ; 4.4257630711082384E7 ; 1.2066059327115252E9 ; 3.716082877349555E9 ; 9.383496979116461E10 ; 0.0
87 ; 4.424630336674324E7 ; 1.2066637759845665E9 ; 3.7603405080606375E9 ; 9.504157572387614E10 ; 0.0
88 ; 4.4224155519951895E7 ; 1.206721566279137E9 ; 3.8045868114273806E9 ; 9.624823949986072E10 ; 0.0
89 ; 4.421101631859529E7 ; 1.2067793011154718E9 ; 3.8488109669473324E9 ; 9.745496106613986E10 ; 0.0
90 ; 4.4193168610258825E7 ; 1.2068369780794039E9 ; 3.893021983265928E9 ; 9.866174036725534E10 ; 0.0
91 ; 4.418358447998409E7 ; 1.2068945948187037E9 ; 3.937215151876187E9 ; 9.986857734533475E10 ; 0.0
92 ; 4.416026021127932E7 ; 1.206952149039668E9 ; 3.981398736356171E9 ; 1.0107547194015346E11 ; 0.0
93 ; 4.414303487432216E7 ; 1.2070096385039396E9 ; 4.0255589965674505E9 ; 1.0228242408919313E11 ; 0.0
94 ; 4.412055488166662E7 ; 1.2070670610255356E9 ; 4.0697020314417725E9 ; 1.0348943372769707E11 ; 0.0
95 ; 4.41023491440739E7 ; 1.2071244144680765E9 ; 4.113822586323439E9 ; 1.046965007887226E11 ; 0.0
96 ; 4.407696952482419E7 ; 1.207181696742191E9 ; 4.157924935467513E9 ; 1.0590362520319067E11 ; 0.0
97 ; 4.406049133277169E7 ; 1.2072389058030963E9 ; 4.202001904992337E9 ; 1.0711080689993286E11 ; 0.0
98 ; 4.404781728756013E7 ; 1.2072960396483254E9 ; 4.246062396325109E9 ; 1.0831804580573596E11 ; 0.0
99 ; 4.402469137923819E7 ; 1.2073530963156056E9 ; 4.290110213612669E9 ; 1.095253418453843E11 ; 0.0
100 ; 4.3999161556711026E7 ; 1.2074100738808675E9 ; 4.334134904991907E9 ; 1.107326949416999E11 ; 0.0
101 ; 4.398034308263706E7 ; 1.2074669704563787E9 ; 4.378134066548618E9 ; 1.1194010501558078E11 ; 0.0
102 ; 4.395811824082942E7 ; 1.2075237841889944E9 ; 4.422114409631255E9 ; 1.1314757198603716E11 ; 0.0
103 ; 4.393811991117087E7 ; 1.2075805132585144E9 ; 4.466072527872085E9 ; 1.1435509577022615E11 ; 0.0
104 ; 4.391607675142751E7 ; 1.2076371558761387E9 ; 4.510010647783256E9 ; 1.1556267628348466E11 ; 0.0
105 ; 4.389622472982422E7 ; 1.20769371028302E9 ; 4.553926724534683E9 ; 1.1677031343936081E11 ; 0.0
106 ; 4.38608247219056E7 ; 1.207750174748899E9 ; 4.597822949264507E9 ; 1.1797800714964383E11 ; 0.0
107 ; 4.384585952953438E7 ; 1.2078065475708232E9 ; 4.641683773986413E9 ; 1.1918575732439273E11 ; 0.0
108 ; 4.3821825588211395E7 ; 1.2078628270719395E9 ; 4.685529633515947E9 ; 1.2039356387196355E11 ; 0.0
109 ; 4.378755875139326E7 ; 1.207919011600358E9 ; 4.729351459104158E9 ; 1.2160142669903549E11 ; 0.0
110 ; 4.376794805044628E7 ; 1.2079750995280833E9 ; 4.773139017855552E9 ; 1.2280934571063585E11 ; 0.0
111 ; 4.374241348742284E7 ; 1.208031089250002E9 ; 4.816906965905998E9 ; 1.2401732081016393E11 ; 0.0
112 ; 4.371426813029855E7 ; 1.2080869791829352E9 ; 4.860649379393421E9 ; 1.2522535189941393E11 ; 0.0
113 ; 4.369169165955501E7 ; 1.208142767764738E9 ; 4.90436364752372E9 ; 1.2643343887859686E11 ; 0.0
114 ; 4.366826010623735E7 ; 1.2081984534534552E9 ; 4.948055339183275E9 ; 1.276415816463616E11 ; 0.0
115 ; 4.3635405338346556E7 ; 1.2082540347265177E9 ; 4.991723599289513E9 ; 1.2884978009981506E11 ; 0.0
116 ; 4.360294562835714E7 ; 1.20830951007999E9 ; 5.035359004627859E9 ; 1.3005803413454158E11 ; 0.0
117 ; 4.3577245439858735E7 ; 1.208364878027855E9 ; 5.078961950256216E9 ; 1.3126634364462157E11 ; 0.0
118 ; 4.3544460328675345E7 ; 1.2084201371013381E9 ; 5.1225391956960745E9 ; 1.3247470852264941E11 ; 0.0
119 ; 4.3515732880400516E7 ; 1.2084752858482702E9 ; 5.16608365602475E9 ; 1.3368312865975075E11 ; 0.0
120 ; 4.348713302827675E7 ; 1.208530322832482E9 ; 5.20959938890515E9 ; 1.3489160394559901E11 ; 0.0
121 ; 4.345144897288804E7 ; 1.2085852466332328E9 ; 5.253086521933427E9 ; 1.361001342684315E11 ; 0.0
122 ; 4.342638296877637E7 ; 1.2086400558446693E9 ; 5.296537970906315E9 ; 1.3730871951506474E11 ; 0.0
123 ; 4.339647456619833E7 ; 1.2086947490753112E9 ; 5.339964353875092E9 ; 1.3851735957090942E11 ; 0.0
124 ; 4.3363148784601375E7 ; 1.208749324947567E9 ; 5.38336082844129E9 ; 1.3972605431998474E11 ; 0.0
125 ; 4.33244548231453E7 ; 1.2088037820972726E9 ; 5.426723977225891E9 ; 1.409348036449323E11 ; 0.0
126 ; 4.330559482347449E7 ; 1.2088581191732528E9 ; 5.470048432049036E9 ; 1.4214360742702957E11 ; 0.0
127 ; 4.326563594046688E7 ; 1.2089123348369107E9 ; 5.513354026872511E9 ; 1.4335246554620282E11 ; 0.0
128 ; 4.323600857914572E7 ; 1.2089664277618303E9 ; 5.556619662812978E9 ; 1.4456137788103973E11 ; 0.0
129 ; 4.3195885201300256E7 ; 1.2090203966334069E9 ; 5.599855671392123E9 ; 1.4577034430880157E11 ; 0.0
130 ; 4.316126484599234E7 ; 1.20907424014849E9 ; 5.643051556593424E9 ; 1.4697936470543497E11 ; 0.0
131 ; 4.3113579744653985E7 ; 1.2091279570150497E9 ; 5.686212821439416E9 ; 1.4818843894558347E11 ; 0.0
132 ; 4.3063966559440844E7 ; 1.2091815459518552E9 ; 5.72932640118407E9 ; 1.493975669025985E11 ; 0.0
133 ; 4.301692910317311E7 ; 1.2092350056881716E9 ; 5.77239036774351E9 ; 1.5060674844855035E11 ; 0.0
134 ; 4.296708243388077E7 ; 1.2092883349634728E9 ; 5.8154072968466835E9 ; 1.5181598345423853E11 ; 0.0
135 ; 4.291620034902328E7 ; 1.2093415325271647E9 ; 5.858374379280564E9 ; 1.53025271789202E11 ; 0.0
136 ; 4.286467661174357E7 ; 1.2093945971383274E9 ; 5.901290579629587E9 ; 1.5423461332172916E11 ; 0.0
137 ; 4.28201135872224E7 ; 1.2094475275654645E9 ; 5.944155256241331E9 ; 1.554440079188675E11 ; 0.0
138 ; 4.2768781143042654E7 ; 1.2095003225862691E9 ; 5.986975369828553E9 ; 1.5665345544643295E11 ; 0.0
139 ; 4.27115800582998E7 ; 1.209552980987399E9 ; 6.029744150971596E9 ; 1.5786295576901923E11 ; 0.0
140 ; 4.267083164946019E7 ; 1.2096055015642624E9 ; 6.072455731029896E9 ; 1.5907250875000662E11 ; 0.0
141 ; 4.261657213403961E7 ; 1.2096578831208148E9 ; 6.115126562679356E9 ; 1.602821142515709E11 ; 0.0
142 ; 4.2562322825796634E7 ; 1.2097101244693666E9 ; 6.1577431348133955E9 ; 1.614917721346917E11 ; 0.0
143 ; 4.2508211476632E7 ; 1.2097622244303975E9 ; 6.200305457639193E9 ; 1.6270148225916107E11 ; 0.0
144 ; 4.2457856113415554E7 ; 1.2098141818323815E9 ; 6.242813669115825E9 ; 1.6391124448359146E11 ; 0.0
145 ; 4.242306773565705E7 ; 1.20986599551162E9 ; 6.28527152522924E9 ; 1.6512105866542383E11 ; 0.0
146 ; 4.238444286375739E7 ; 1.2099176643120825E9 ; 6.327694592964897E9 ; 1.6633092466093546E11 ; 0.0
147 ; 4.234673543261008E7 ; 1.2099691870852551E9 ; 6.370079035828654E9 ; 1.6754084232524753E11 ; 0.0
148 ; 4.231000082415977E7 ; 1.2100205626899962E9 ; 6.412425771261265E9 ; 1.687508115123328E11 ; 0.0
149 ; 4.2276303628612675E7 ; 1.2100717899923975E9 ; 6.454735772085424E9 ; 1.699608320750228E11 ; 0.0
150 ; 4.2232518511840224E7 ; 1.2101228678656547E9 ; 6.497012075714037E9 ; 1.711709038650152E11 ; 0.0
151 ; 4.2199597328728095E7 ; 1.2101737951899416E9 ; 6.539244594225877E9 ; 1.7238102673288086E11 ; 0.0
152 ; 4.216503364923532E7 ; 1.2102245708522909E9 ; 6.581444191554605E9 ; 1.735912005280708E11 ; 0.0
153 ; 4.212509333566625E7 ; 1.2102751937464802E9 ; 6.62360922520384E9 ; 1.748014250989231E11 ; 0.0
154 ; 4.208234400810303E7 ; 1.210325662772925E9 ; 6.665734318539507E9 ; 1.760117002926696E11 ; 0.0
155 ; 4.20478182104142E7 ; 1.2103759768385742E9 ; 6.70781666254761E9 ; 1.772220259554425E11 ; 0.0
156 ; 4.200780850443263E7 ; 1.2104261348568125E9 ; 6.749864480758024E9 ; 1.7843240193228107E11 ; 0.0
157 ; 4.1971341090763E7 ; 1.210476135747366E9 ; 6.791872289262457E9 ; 1.7964282806713788E11 ; 0.0
158 ; 4.193868763469158E7 ; 1.2105259784362137E9 ; 6.83384363035322E9 ; 1.8085330420288525E11 ; 0.0
159 ; 4.190087638702597E7 ; 1.2105756618555017E9 ; 6.875782317987911E9 ; 1.8206383018132147E11 ; 0.0
160 ; 4.185956855514709E7 ; 1.2106251849434617E9 ; 6.917683194374937E9 ; 1.8327440584317697E11 ; 0.0
161 ; 4.1815118112852335E7 ; 1.210674546644334E9 ; 6.959542762930084E9 ; 1.8448503102812042E11 ; 0.0
162 ; 4.17749343799281E7 ; 1.210723745908294E9 ; 7.001357881042936E9 ; 1.8569570557476477E11 ; 0.0
163 ; 4.174026264633287E7 ; 1.210772781691381E9 ; 7.043132815422864E9 ; 1.8690642932067307E11 ; 0.0
164 ; 4.1693580027188934E7 ; 1.2108216529554317E9 ; 7.084873078069197E9 ; 1.8811720210236444E11 ; 0.0
165 ; 4.165726766951963E7 ; 1.210870358668017E9 ; 7.126566658096386E9 ; 1.893280237553199E11 ; 0.0
166 ; 4.161716123473388E7 ; 1.2109188978023791E9 ; 7.168223925765905E9 ; 1.905388941139879E11 ; 0.0
167 ; 4.1577489514399044E7 ; 1.2109672693373768E9 ; 7.209841087000639E9 ; 1.9174981301179028E11 ; 0.0
168 ; 4.1535412037588716E7 ; 1.2110154722574265E9 ; 7.251418576515038E9 ; 1.9296078028112766E11 ; 0.0
169 ; 4.149200708515063E7 ; 1.2110635055524526E9 ; 7.292953988552627E9 ; 1.9417179575338507E11 ; 0.0
170 ; 4.145504591233201E7 ; 1.2111113682178361E9 ; 7.334445995637777E9 ; 1.9538285925893753E11 ; 0.0
171 ; 4.141183675271686E7 ; 1.2111590592543674E9 ; 7.375901041550109E9 ; 1.9659397062715536E11 ; 0.0
172 ; 4.1379677744719334E7 ; 1.2112065776682005E9 ; 7.417312878302826E9 ; 1.9780512968640973E11 ; 0.0
173 ; 4.133968587222833E7 ; 1.2112539224708104E9 ; 7.458692556047545E9 ; 1.9901633626407794E11 ; 0.0
174 ; 4.1309024188466914E7 ; 1.211301092678952E9 ; 7.500032241919774E9 ; 2.0022759018654877E11 ; 0.0
175 ; 4.1286955428792074E7 ; 1.2113480873146205E9 ; 7.541341266108241E9 ; 2.0143889127922772E11 ; 0.0
176 ; 4.126172493728037E7 ; 1.211394905405015E9 ; 7.582628221537033E9 ; 2.0265023936654233E11 ; 0.0
177 ; 4.123547850354466E7 ; 1.2114415459825032E9 ; 7.623889946474314E9 ; 2.0386163427194736E11 ; 0.0
178 ; 4.1209046722436816E7 ; 1.2114880080845876E9 ; 7.665125424977859E9 ; 2.0507307581792987E11 ; 0.0
179 ; 4.1189581463907056E7 ; 1.2115342907538743E9 ; 7.706334471700295E9 ; 2.0628456382601447E11 ; 0.0
180 ; 4.115956379357122E7 ; 1.211580393038042E9 ; 7.747524053164203E9 ; 2.0749609811676834E11 ; 0.0
181 ; 4.113716539225843E7 ; 1.2116263139898148E9 ; 7.788683616957774E9 ; 2.087076785098064E11 ; 0.0
182 ; 4.110491616123808E7 ; 1.211672052666933E9 ; 7.829820782350033E9 ; 2.099193048237962E11 ; 0.0
183 ; 4.108829069682309E7 ; 1.2117176081321301E9 ; 7.8709256985112705E9 ; 2.1113097687646313E11 ; 0.0
184 ; 4.105950296006941E7 ; 1.2117629794531069E9 ; 7.912013989208094E9 ; 2.1234269448459528E11 ; 0.0
185 ; 4.1037730841861516E7 ; 1.211808165702508E9 ; 7.953073492168163E9 ; 2.1355445746404837E11 ; 0.0
186 ; 4.101181328179443E7 ; 1.211853165957902E9 ; 7.994111223010025E9 ; 2.147662656297509E11 ; 0.0
187 ; 4.098528893931318E7 ; 1.2118979793017592E9 ; 8.03512303629182E9 ; 2.159781187957088E11 ; 0.0
188 ; 4.096051762706514E7 ; 1.2119426048214333E9 ; 8.0761083252311325E9 ; 2.1719001677501056E11 ; 0.0
189 ; 4.09420876005125E7 ; 1.2119870416091433E9 ; 8.117068842858197E9 ; 2.18401959379832E11 ; 0.0
190 ; 4.0915099801875554E7 ; 1.2120312887619553E9 ; 8.15801093045871E9 ; 2.1961394642144113E11 ; 0.0
191 ; 4.0886328355174676E7 ; 1.2120753453817675E9 ; 8.198926030260585E9 ; 2.208259777102031E11 ; 0.0
192 ; 4.0869916105038635E7 ; 1.2121192105752943E9 ; 8.23981235861576E9 ; 2.2203805305558487E11 ; 0.0
193 ; 4.083296413514338E7 ; 1.2121628834540524E9 ; 8.2806822747207985E9 ; 2.2325017226616016E11 ; 0.0
194 ; 4.0810591381555095E7 ; 1.2122063631343477E9 ; 8.321515238855942E9 ; 2.244623351496142E11 ; 0.0
195 ; 4.0786623284093425E7 ; 1.2122496487372622E9 ; 8.362325830237497E9 ; 2.2567454151274854E11 ; 0.0
196 ; 4.075692025806763E7 ; 1.212292739388644E9 ; 8.403112453521591E9 ; 2.268867911614858E11 ; 0.0
