CSV File for the Network on Day 263
1 - Minute m 
2 - Power Consumed at minute m 
3 - Power Produced at minute m 
4 - Energy Consumed since the beginning of the day 
5 - Energy Produced since the beginning of the day 
6 - Energy Lost since the beginning of the day 
 
0 ; 1.3873830517751612E7 ; 6.348401502432082E8 ; 0.0 ; 0.0 ; 0.0
1 ; 1.3905168158371354E7 ; 6.357508330946667E8 ; 1.3873830517751612E7 ; 6.348401502432082E8 ; 0.0
2 ; 1.393751247895586E7 ; 6.38514917950436E8 ; 2.7778998676122963E7 ; 1.270590983337875E9 ; 0.0
3 ; 1.3977295536070367E7 ; 6.43132422480185E8 ; 4.171651115507882E7 ; 1.909105901288311E9 ; 0.0
4 ; 1.4027747362853661E7 ; 6.496033625387107E8 ; 5.569380669114919E7 ; 2.552238323768496E9 ; 0.0
5 ; 1.4087920080071472E7 ; 6.579277520714927E8 ; 6.972155405400285E7 ; 3.2018416863072066E9 ; 0.0
6 ; 1.4168497389199022E7 ; 6.681056030299026E8 ; 8.380947413407433E7 ; 3.8597694383786993E9 ; 0.0
7 ; 1.4287786288833143E7 ; 6.801369252972536E8 ; 9.797797152327335E7 ; 4.527875041408602E9 ; 0.0
8 ; 1.4468657369237445E7 ; 6.940217266267436E8 ; 1.1226575781210649E8 ; 5.208011966705855E9 ; 0.0
9 ; 1.473667036639075E7 ; 7.097600125922018E8 ; 1.2673441518134394E8 ; 5.902033693332599E9 ; 0.0
10 ; 1.5165581900234591E7 ; 7.273517865523678E8 ; 1.4147108554773468E8 ; 6.611793705924801E9 ; 0.0
11 ; 1.5842808155864045E7 ; 7.467970496292391E8 ; 1.5663666744796926E8 ; 7.339145492477169E9 ; 0.0
12 ; 1.6942634142118588E7 ; 7.680958007008178E8 ; 1.7247947560383332E8 ; 8.085942542106408E9 ; 0.0
13 ; 1.7999536625422563E7 ; 7.912480364083648E8 ; 1.894221097459519E8 ; 8.854038342807226E9 ; 0.0
14 ; 1.811645302406268E7 ; 8.162537511780509E8 ; 2.0742164637137446E8 ; 9.645286379215591E9 ; 0.0
15 ; 1.8157265347396128E7 ; 8.431129372566779E8 ; 2.2553809939543712E8 ; 1.0461540130393642E10 ; 0.0
16 ; 1.8197207224965744E7 ; 8.71825584760933E8 ; 2.4369536474283326E8 ; 1.130465306765032E10 ; 0.0
17 ; 1.8239294466661286E7 ; 9.023916817394443E8 ; 2.61892571967799E8 ; 1.2176478652411253E10 ; 0.0
18 ; 1.8281194498415638E7 ; 9.348112142467322E8 ; 2.801318664344603E8 ; 1.3078870334150698E10 ; 0.0
19 ; 1.8324463992671855E7 ; 9.69084166428E8 ; 2.9841306093287593E8 ; 1.401368154839743E10 ; 0.0
20 ; 1.8372993680535585E7 ; 1.0052105206135783E9 ; 3.167375249255478E8 ; 1.498276571482543E10 ; 0.0
21 ; 1.8412025488358364E7 ; 1.0431902574217503E9 ; 3.351105186060834E8 ; 1.5987976235439009E10 ; 0.0
22 ; 1.8445663281325594E7 ; 1.0830233558686073E9 ; 3.535225440944418E8 ; 1.703116649286076E10 ; 0.0
23 ; 1.85003684300345E7 ; 1.1247097934835591E9 ; 3.7196820737576735E8 ; 1.8114189848729366E10 ; 0.0
24 ; 1.853610016564748E7 ; 1.1682495464291081E9 ; 3.9046857580580187E8 ; 1.9238899642212925E10 ; 0.0
25 ; 1.857963419021161E7 ; 1.205770835012622E9 ; 4.090046759714494E8 ; 2.0407149188642033E10 ; 0.0
26 ; 1.8622566926443003E7 ; 1.2057949200319545E9 ; 4.2758431016166097E8 ; 2.1612920023654655E10 ; 0.0
27 ; 1.866375906938792E7 ; 1.2058203900494275E9 ; 4.4620687708810395E8 ; 2.281871494368661E10 ; 0.0
28 ; 1.8705601500139054E7 ; 1.2058472169961743E9 ; 4.6487063615749186E8 ; 2.402453533373604E10 ; 0.0
29 ; 1.8745797975938555E7 ; 1.2058753720533886E9 ; 4.835762376576309E8 ; 2.5230382550732212E10 ; 0.0
30 ; 1.8789620750159156E7 ; 1.205904825771213E9 ; 5.023220356335695E8 ; 2.64362579227856E10 ; 0.0
31 ; 1.8830731973645825E7 ; 1.2059355481838858E9 ; 5.211116563837286E8 ; 2.7642162748556812E10 ; 0.0
32 ; 1.886716631121531E7 ; 1.205967508920421E9 ; 5.399423883573744E8 ; 2.88480982967407E10 ; 0.0
33 ; 1.8903043875272375E7 ; 1.206000677310216E9 ; 5.588095546685897E8 ; 3.005406580566112E10 ; 0.0
34 ; 1.893580000692753E7 ; 1.2060350224830987E9 ; 5.777125985438621E8 ; 3.1260066482971336E10 ; 0.0
35 ; 1.8978718523444794E7 ; 1.2060705134634418E9 ; 5.966483985507896E8 ; 3.2466101505454433E10 ; 0.0
36 ; 1.900796694844247E7 ; 1.2061071192580721E9 ; 6.156271170742344E8 ; 3.3672172018917877E10 ; 0.0
37 ; 1.9035078991597332E7 ; 1.206144808937822E9 ; 6.346350840226768E8 ; 3.487827913817595E10 ; 0.0
38 ; 1.9070739104753226E7 ; 1.2061835517126312E9 ; 6.536701630142741E8 ; 3.608442394711377E10 ; 0.0
39 ; 1.9104585361765523E7 ; 1.206223317000215E9 ; 6.727409021190274E8 ; 3.72906074988264E10 ; 0.0
40 ; 1.9130910105114345E7 ; 1.206264074488373E9 ; 6.918454874807929E8 ; 3.8496830815826614E10 ; 0.0
41 ; 1.9158283220441394E7 ; 1.2063057941910753E9 ; 7.109763975859072E8 ; 3.970309489031499E10 ; 0.0
42 ; 1.917868345031782E7 ; 1.2063484464985113E9 ; 7.301346808063486E8 ; 4.0909400684506065E10 ; 0.0
43 ; 1.919473378995893E7 ; 1.2063920022213402E9 ; 7.493133642566664E8 ; 4.211574913100458E10 ; 0.0
44 ; 1.9222419645295784E7 ; 1.2064364326293995E9 ; 7.685080980466254E8 ; 4.332214113322592E10 ; 0.0
45 ; 1.924534748478856E7 ; 1.2064817094851632E9 ; 7.877305176919211E8 ; 4.452857756585532E10 ; 0.0
46 ; 1.9258687236025758E7 ; 1.2065278050722604E9 ; 8.069758651767097E8 ; 4.5735059275340485E10 ; 0.0
47 ; 1.9276184451151486E7 ; 1.2065746922193654E9 ; 8.262345524127355E8 ; 4.694158708041274E10 ; 0.0
48 ; 1.9291767882880118E7 ; 1.2066223443197918E9 ; 8.45510736863887E8 ; 4.814816177263211E10 ; 0.0
49 ; 1.9300955661420003E7 ; 1.206670735347107E9 ; 8.64802504746767E8 ; 4.9354784116951904E10 ; 0.0
50 ; 1.930377369633338E7 ; 1.206719839867096E9 ; 8.84103460408187E8 ; 5.056145485229901E10 ; 0.0
51 ; 1.9313359686926942E7 ; 1.2067696330463839E9 ; 9.034072341045204E8 ; 5.176817469216611E10 ; 0.0
52 ; 1.9325545150541063E7 ; 1.2068200906580226E9 ; 9.227205937914474E8 ; 5.2974944325212494E10 ; 0.0
53 ; 1.9336371180448394E7 ; 1.2068711890843365E9 ; 9.420461389419885E8 ; 5.4181764415870514E10 ; 0.0
54 ; 1.9339821627034687E7 ; 1.2069229053173044E9 ; 9.613825101224369E8 ; 5.538863560495485E10 ; 0.0
55 ; 1.9352356408319127E7 ; 1.2069752169567418E9 ; 9.807223317494715E8 ; 5.6595558510272156E10 ; 0.0
56 ; 1.9355497827976804E7 ; 1.2070281022065334E9 ; 1.0000746881577907E9 ; 5.78025337272289E10 ; 0.0
57 ; 1.9361503270678543E7 ; 1.2070815398691483E9 ; 1.0194301859857675E9 ; 5.900956182943543E10 ; 0.0
58 ; 1.9362625343634095E7 ; 1.2071355093386526E9 ; 1.038791689256446E9 ; 6.021664336930458E10 ; 0.0
59 ; 1.9374160719363406E7 ; 1.2071899905924215E9 ; 1.0581543146000801E9 ; 6.1423778878643234E10 ; 0.0
60 ; 1.937496027024905E7 ; 1.2072449641817355E9 ; 1.0775284753194435E9 ; 6.263096886923566E10 ; 0.0
61 ; 1.938540829171408E7 ; 1.207300411221427E9 ; 1.0969034355896926E9 ; 6.383821383341739E10 ; 0.0
62 ; 1.9390121444889497E7 ; 1.207356313378737E9 ; 1.1162888438814068E9 ; 6.504551424463882E10 ; 0.0
63 ; 1.93891807354089E7 ; 1.207412652861514E9 ; 1.1356789653262963E9 ; 6.6252870558017555E10 ; 0.0
64 ; 1.939967822307201E7 ; 1.2074694124058921E9 ; 1.155068146061705E9 ; 6.746028321087907E10 ; 0.0
65 ; 1.941225794133378E7 ; 1.2075265752635524E9 ; 1.1744678242847772E9 ; 6.866775262328496E10 ; 0.0
66 ; 1.9410445981692623E7 ; 1.2075841251886773E9 ; 1.193880082226111E9 ; 6.987527919854851E10 ; 0.0
67 ; 1.941305930079495E7 ; 1.2076420464246879E9 ; 1.2132905282078035E9 ; 7.108286332373718E10 ; 0.0
68 ; 1.9417464113261297E7 ; 1.2077003236908402E9 ; 1.2327035875085983E9 ; 7.229050537016187E10 ; 0.0
69 ; 1.941812043061786E7 ; 1.2077589421687605E9 ; 1.2521210516218596E9 ; 7.34982056938527E10 ; 0.0
70 ; 1.9420843763689727E7 ; 1.2078178874889777E9 ; 1.2715391720524774E9 ; 7.470596463602147E10 ; 0.0
71 ; 1.9417896146921806E7 ; 1.2078771457175064E9 ; 1.290960015816167E9 ; 7.591378252351045E10 ; 0.0
72 ; 1.9425777869244166E7 ; 1.2079367033425355E9 ; 1.310377911963089E9 ; 7.712165966922797E10 ; 0.0
73 ; 1.942504632911726E7 ; 1.207996547261257E9 ; 1.329803689832333E9 ; 7.83295963725705E10 ; 0.0
74 ; 1.942663982974125E7 ; 1.2080566647668731E9 ; 1.3492287361614504E9 ; 7.953759291983176E10 ; 0.0
75 ; 1.9423617665609643E7 ; 1.208117043535812E9 ; 1.3686553759911916E9 ; 8.074564958459863E10 ; 0.0
76 ; 1.94244943812795E7 ; 1.2081776716151786E9 ; 1.3880789936568012E9 ; 8.195376662813445E10 ; 0.0
77 ; 1.942598248523858E7 ; 1.2082385374104574E9 ; 1.4075034880380807E9 ; 8.316194429974962E10 ; 0.0
78 ; 1.9412427198843006E7 ; 1.2082996296734896E9 ; 1.4269294705233192E9 ; 8.437018283716008E10 ; 0.0
79 ; 1.9401381411470234E7 ; 1.2083609374907331E9 ; 1.4463418977221622E9 ; 8.557848246683357E10 ; 0.0
80 ; 1.9388332494024325E7 ; 1.2084224502718196E9 ; 1.4657432791336324E9 ; 8.678684340432431E10 ; 0.0
81 ; 1.9370570140810546E7 ; 1.208484157738415E9 ; 1.4851316116276567E9 ; 8.799526585459613E10 ; 0.0
82 ; 1.9358774595856786E7 ; 1.2085460499133887E9 ; 1.5045021817684672E9 ; 8.920375001233455E10 ; 0.0
83 ; 1.934342010598051E7 ; 1.2086081171102955E9 ; 1.523860956364324E9 ; 9.041229606224794E10 ; 0.0
84 ; 1.9329859299756378E7 ; 1.2086703499231706E9 ; 1.5432043764703045E9 ; 9.162090417935823E10 ; 0.0
85 ; 1.932009156068584E7 ; 1.2087327392166386E9 ; 1.5625342357700608E9 ; 9.28295745292814E10 ; 0.0
86 ; 1.930408749903087E7 ; 1.2087952761163356E9 ; 1.5818543273307467E9 ; 9.403830726849805E10 ; 0.0
87 ; 1.9279360146435793E7 ; 1.2088579519996405E9 ; 1.6011584148297775E9 ; 9.524710254461438E10 ; 0.0
88 ; 1.9271095417109042E7 ; 1.208920758486711E9 ; 1.6204377749762132E9 ; 9.645596049661401E10 ; 0.0
89 ; 1.925019124752512E7 ; 1.2089836874318218E9 ; 1.6397088703933222E9 ; 9.766488125510072E10 ; 0.0
90 ; 1.923471655947095E7 ; 1.2090467309150012E9 ; 1.6589590616408474E9 ; 9.887386494253255E10 ; 0.0
91 ; 1.9212406403515264E7 ; 1.209109881233953E9 ; 1.6781937782003183E9 ; 1.0008291167344756E11 ; 0.0
92 ; 1.9200082943731844E7 ; 1.2091731308962686E9 ; 1.6974061846038337E9 ; 1.012920215546815E11 ; 0.0
93 ; 1.918015313739849E7 ; 1.2092364726119113E9 ; 1.7166062675475655E9 ; 1.0250119468557777E11 ; 0.0
94 ; 1.916527822102794E7 ; 1.2092998992859738E9 ; 1.735786420684964E9 ; 1.0371043115818968E11 ; 0.0
95 ; 1.914327644885033E7 ; 1.2093634040116982E9 ; 1.7549516989059918E9 ; 1.0491973105747566E11 ; 0.0
96 ; 1.912411881111244E7 ; 1.2094269800637524E9 ; 1.7740949753548422E9 ; 1.0612909446148737E11 ; 0.0
97 ; 1.9111277048079506E7 ; 1.209490620891753E9 ; 1.7932190941659546E9 ; 1.0733852144155112E11 ; 0.0
98 ; 1.9086529199764878E7 ; 1.2095543201140304E9 ; 1.812330371214034E9 ; 1.0854801206244287E11 ; 0.0
99 ; 1.9070282260603234E7 ; 1.209618071511628E9 ; 1.831416900413799E9 ; 1.097575663825569E11 ; 0.0
100 ; 1.9041986398928124E7 ; 1.2096818690225244E9 ; 1.8504871826744022E9 ; 1.1096718445406853E11 ; 0.0
101 ; 1.9035069097336583E7 ; 1.2097457067360773E9 ; 1.8695291690733304E9 ; 1.1217686632309105E11 ; 0.0
102 ; 1.9012239379822247E7 ; 1.2098095788876746E9 ; 1.888564238170667E9 ; 1.1338661202982713E11 ; 0.0
103 ; 1.8991578934418205E7 ; 1.209873479853592E9 ; 1.9075764775504892E9 ; 1.1459642160871481E11 ; 0.0
104 ; 1.8963318433221493E7 ; 1.2099374041460452E9 ; 1.9265680564849074E9 ; 1.158062950885684E11 ; 0.0
105 ; 1.894647281674407E7 ; 1.2100013464084337E9 ; 1.945531374918129E9 ; 1.1701623249271445E11 ; 0.0
106 ; 1.891867907244144E7 ; 1.2100653014107635E9 ; 1.964477847734873E9 ; 1.1822623383912288E11 ; 0.0
107 ; 1.889423081791181E7 ; 1.2101292640452495E9 ; 1.9833965268073144E9 ; 1.1943629914053365E11 ; 0.0
108 ; 1.888094172788359E7 ; 1.2101932293220859E9 ; 2.0022907576252263E9 ; 1.2064642840457889E11 ; 0.0
109 ; 1.8853748969557077E7 ; 1.2102571923653774E9 ; 2.0211716993531098E9 ; 1.2185662163390097E11 ; 0.0
110 ; 1.8827679317618165E7 ; 1.2103211484092321E9 ; 2.040025448322667E9 ; 1.2306687882626634E11 ; 0.0
111 ; 1.8811295807764374E7 ; 1.2103850927939997E9 ; 2.058853127640285E9 ; 1.2427719997467557E11 ; 0.0
112 ; 1.877840933890578E7 ; 1.2104490209626586E9 ; 2.0776644234480493E9 ; 1.2548758506746957E11 ; 0.0
113 ; 1.875556492130182E7 ; 1.2105129284573417E9 ; 2.096442832786955E9 ; 1.2669803408843224E11 ; 0.0
114 ; 1.8736916711611867E7 ; 1.2105768109159958E9 ; 2.115198397708257E9 ; 1.2790854701688957E11 ; 0.0
115 ; 1.8710646416525073E7 ; 1.2106406640691688E9 ; 2.133935314419869E9 ; 1.2911912382780557E11 ; 0.0
116 ; 1.8679784788492315E7 ; 1.2107044837369235E9 ; 2.152645960836394E9 ; 1.3032976449187474E11 ; 0.0
117 ; 1.866191382902462E7 ; 1.2107682658258665E9 ; 2.171325745624886E9 ; 1.3154046897561166E11 ; 0.0
118 ; 1.8632042099734053E7 ; 1.2108320063262954E9 ; 2.189987659453911E9 ; 1.3275123724143753E11 ; 0.0
119 ; 1.8606608662417386E7 ; 1.2108957013094525E9 ; 2.2086197015536447E9 ; 1.3396206924776382E11 ; 0.0
120 ; 1.8584785153085127E7 ; 1.2109593469248848E9 ; 2.227226310216062E9 ; 1.3517296494907327E11 ; 0.0
121 ; 1.855544087975084E7 ; 1.2110229393979056E9 ; 2.2458110953691473E9 ; 1.3638392429599815E11 ; 0.0
122 ; 1.852243040212428E7 ; 1.2110864750271525E9 ; 2.264366536248898E9 ; 1.3759494723539606E11 ; 0.0
123 ; 1.8498649838668592E7 ; 1.211149950182239E9 ; 2.2828889666510224E9 ; 1.3880603371042322E11 ; 0.0
124 ; 1.847201201534403E7 ; 1.2112133613014958E9 ; 2.3013876164896913E9 ; 1.4001718366060547E11 ; 0.0
125 ; 1.8446971341033533E7 ; 1.211276704889796E9 ; 2.3198596285050354E9 ; 1.4122839702190695E11 ; 0.0
126 ; 1.841793782261017E7 ; 1.2113399775164666E9 ; 2.338306599846069E9 ; 1.4243967372679675E11 ; 0.0
127 ; 1.838601877243154E7 ; 1.211403175813275E9 ; 2.356724537668679E9 ; 1.4365101370431323E11 ; 0.0
128 ; 1.8355092552526668E7 ; 1.2114662964724946E9 ; 2.3751105564411106E9 ; 1.448624168801265E11 ; 0.0
129 ; 1.83262672883135E7 ; 1.2115293362450414E9 ; 2.393465648993637E9 ; 1.46073883176599E11 ; 0.0
130 ; 1.8295672314840883E7 ; 1.2115922919386806E9 ; 2.4117919162819505E9 ; 1.4728541251284406E11 ; 0.0
131 ; 1.8245401041756436E7 ; 1.2116551604163024E9 ; 2.4300875885967913E9 ; 1.4849700480478275E11 ; 0.0
132 ; 1.8205173211211428E7 ; 1.2117179385942602E9 ; 2.448332989638548E9 ; 1.4970865996519904E11 ; 0.0
133 ; 1.8162940525482982E7 ; 1.211780623440772E9 ; 2.466538162849759E9 ; 1.509203779037933E11 ; 0.0
134 ; 1.811800585883949E7 ; 1.211843211974379E9 ; 2.484701103375242E9 ; 1.5213215852723407E11 ; 0.0
135 ; 1.8075915861149535E7 ; 1.211905701262466E9 ; 2.5028191092340817E9 ; 1.5334400173920844E11 ; 0.0
136 ; 1.8029287394816544E7 ; 1.2119680884198306E9 ; 2.520895025095231E9 ; 1.545559074404709E11 ; 0.0
137 ; 1.7987672010892726E7 ; 1.2120303706073108E9 ; 2.5389243124900475E9 ; 1.5576787552889072E11 ; 0.0
138 ; 1.7936189849719603E7 ; 1.212092545030458E9 ; 2.5569119845009403E9 ; 1.5697990589949802E11 ; 0.0
139 ; 1.7893648187631484E7 ; 1.212154608938263E9 ; 2.57484817435066E9 ; 1.5819199844452847E11 ; 0.0
140 ; 1.7848714604352303E7 ; 1.2122165596219254E9 ; 2.5927418225382915E9 ; 1.5940415305346674E11 ; 0.0
141 ; 1.780367645407898E7 ; 1.2122783944136696E9 ; 2.610590537142644E9 ; 1.6061636961308865E11 ; 0.0
142 ; 1.7751065706557114E7 ; 1.2123401106856031E9 ; 2.628394213596723E9 ; 1.6182864800750232E11 ; 0.0
143 ; 1.770619696838584E7 ; 1.2124017058486166E9 ; 2.6461452793032804E9 ; 1.6304098811818793E11 ; 0.0
144 ; 1.76631735723501E7 ; 1.212463177351323E9 ; 2.663851476271666E9 ; 1.6425338982403653E11 ; 0.0
145 ; 1.7625032942361865E7 ; 1.2125245226790352E9 ; 2.681514649844016E9 ; 1.6546585300138785E11 ; 0.0
146 ; 1.760267166540712E7 ; 1.2125857393527813E9 ; 2.699139682786378E9 ; 1.666783775240669E11 ; 0.0
147 ; 1.75722825535027E7 ; 1.2126468249283535E9 ; 2.716742354451785E9 ; 1.6789096326341968E11 ; 0.0
148 ; 1.75418758013395E7 ; 1.2127077769953914E9 ; 2.7343146370052876E9 ; 1.6910361008834802E11 ; 0.0
149 ; 1.750701249036916E7 ; 1.2127685931764984E9 ; 2.7518565128066273E9 ; 1.703163178653434E11 ; 0.0
150 ; 1.74806049794571E7 ; 1.2128292711263905E9 ; 2.7693635252969966E9 ; 1.715290864585199E11 ; 0.0
151 ; 1.7448941810169816E7 ; 1.212889808531071E9 ; 2.7868441302764535E9 ; 1.727419157296463E11 ; 0.0
152 ; 1.741494278309803E7 ; 1.2129502031070397E9 ; 2.804293072086623E9 ; 1.7395480553817737E11 ; 0.0
153 ; 1.739471034724071E7 ; 1.2130104526005263E9 ; 2.8217080148697214E9 ; 1.751677557412844E11 ; 0.0
154 ; 1.7358415083850097E7 ; 1.2130705547867508E9 ; 2.8391027252169623E9 ; 1.7638076619388492E11 ; 0.0
155 ; 1.7328257564061E7 ; 1.2131305074692125E9 ; 2.8564611403008122E9 ; 1.7759383674867166E11 ; 0.0
156 ; 1.7292174303440742E7 ; 1.2131903084789987E9 ; 2.8737893978648734E9 ; 1.7880696725614087E11 ; 0.0
157 ; 1.7259886036746085E7 ; 1.2132499556741238E9 ; 2.891081572168314E9 ; 1.8002015756461987E11 ; 0.0
158 ; 1.723358066203737E7 ; 1.2133094469388845E9 ; 2.90834145820506E9 ; 1.81233407520294E11 ; 0.0
159 ; 1.719483779382603E7 ; 1.2133687801832438E9 ; 2.9255750388670974E9 ; 1.8244671696723288E11 ; 0.0
160 ; 1.7172829289222993E7 ; 1.2134279533422303E9 ; 2.9427698766609235E9 ; 1.8366008574741614E11 ; 0.0
161 ; 1.71337613911457E7 ; 1.2134869643753614E9 ; 2.9599427059501467E9 ; 1.8487351370075836E11 ; 0.0
162 ; 1.7105981101336118E7 ; 1.213545811266087E9 ; 2.9770764673412924E9 ; 1.8608700066513373E11 ; 0.0
163 ; 1.7070939874843758E7 ; 1.2136044920212479E9 ; 2.9941824484426284E9 ; 1.873005464763998E11 ; 0.0
164 ; 1.7047040275566667E7 ; 1.2136630046705568E9 ; 3.011253388317472E9 ; 1.8851415096842105E11 ; 0.0
165 ; 1.701226032103429E7 ; 1.2137213472660966E9 ; 3.0283004285930386E9 ; 1.897278139730916E11 ; 0.0
166 ; 1.697682008018353E7 ; 1.2137795178818312E9 ; 3.045312688914073E9 ; 1.909415353203577E11 ; 0.0
167 ; 1.6951573126016483E7 ; 1.2138375146131392E9 ; 3.0622895089942565E9 ; 1.9215531483823953E11 ; 0.0
168 ; 1.6919192159014203E7 ; 1.2138953355763571E9 ; 3.079241082120273E9 ; 1.9336915235285266E11 ; 0.0
169 ; 1.6889875883658804E7 ; 1.213952978908343E9 ; 3.0961602742792873E9 ; 1.9458304768842902E11 ; 0.0
170 ; 1.6847594290054873E7 ; 1.214010442766051E9 ; 3.113050150162946E9 ; 1.9579700066733737E11 ; 0.0
171 ; 1.681467377469052E7 ; 1.2140677253261218E9 ; 3.129897744453001E9 ; 1.9701101111010342E11 ; 0.0
172 ; 1.678396157525301E7 ; 1.2141248247844858E9 ; 3.1467124182276917E9 ; 1.9822507883542953E11 ; 0.0
173 ; 1.6757100575158551E7 ; 1.2141817393559804E9 ; 3.1634963798029447E9 ; 1.9943920366021402E11 ; 0.0
174 ; 1.6727986493178776E7 ; 1.2142384672739797E9 ; 3.1802534803781033E9 ; 2.0065338539957E11 ; 0.0
175 ; 1.6702740737794397E7 ; 1.2142950067900343E9 ; 3.196981466871282E9 ; 2.01867623866844E11 ; 0.0
176 ; 1.6681434797665235E7 ; 1.2143513561735265E9 ; 3.2136842076090765E9 ; 2.0308191887363403E11 ; 0.0
177 ; 1.6652315988551958E7 ; 1.214407513711334E9 ; 3.2303656424067416E9 ; 2.0429627022980756E11 ; 0.0
178 ; 1.6627141885503795E7 ; 1.2144634777075055E9 ; 3.2470179583952937E9 ; 2.055106777435189E11 ; 0.0
179 ; 1.6598853360656187E7 ; 1.2145192464829466E9 ; 3.2636451002807975E9 ; 2.067251412212264E11 ; 0.0
180 ; 1.6578181228884395E7 ; 1.2145748183751173E9 ; 3.2802439536414537E9 ; 2.0793966046770935E11 ; 0.0
181 ; 1.6555242923869178E7 ; 1.214630191737736E9 ; 3.296822134870338E9 ; 2.0915423528608447E11 ; 0.0
182 ; 1.6524767061018277E7 ; 1.2146853649404974E9 ; 3.313377377794207E9 ; 2.103688654778222E11 ; 0.0
183 ; 1.6498447128988635E7 ; 1.2147403363687959E9 ; 3.3299021448552256E9 ; 2.115835508427627E11 ; 0.0
184 ; 1.6472600140847897E7 ; 1.214795104423459E9 ; 3.3464005919842143E9 ; 2.127982911791315E11 ; 0.0
185 ; 1.6457450701223698E7 ; 1.2148496675204911E9 ; 3.362873192125062E9 ; 2.1401308628355496E11 ; 0.0
186 ; 1.642895044371462E7 ; 1.2149040240908217E9 ; 3.379330642826286E9 ; 2.1522793595107544E11 ; 0.0
187 ; 1.6400651584158557E7 ; 1.2149581725800655E9 ; 3.3957595932700005E9 ; 2.1644283997516626E11 ; 0.0
188 ; 1.6374947905011557E7 ; 1.215012111448288E9 ; 3.412160244854159E9 ; 2.1765779814774634E11 ; 0.0
189 ; 1.6347536353825305E7 ; 1.2150658391697774E9 ; 3.4285351927591705E9 ; 2.1887281025919464E11 ; 0.0
190 ; 1.6329537973450318E7 ; 1.2151193542328286E9 ; 3.4448827291129956E9 ; 2.200878760983644E11 ; 0.0
191 ; 1.6302278095440129E7 ; 1.215172655139528E9 ; 3.461212267086446E9 ; 2.2130299545259723E11 ; 0.0
192 ; 1.6275555399760269E7 ; 1.2152257404055483E9 ; 3.4775145451818857E9 ; 2.2251816810773676E11 ; 0.0
193 ; 1.6243329580266329E7 ; 1.2152786085599499E9 ; 3.493790100581646E9 ; 2.237333938481423E11 ; 0.0
194 ; 1.6229234966217123E7 ; 1.2153312581449883E9 ; 3.5100334301619124E9 ; 2.2494867245670224E11 ; 0.0
195 ; 1.620289330362102E7 ; 1.2153836877159257E9 ; 3.5262626651281295E9 ; 2.2616400371484723E11 ; 0.0
