CSV File for the Network on Day 191
1 - Minute m 
2 - Power Consumed at minute m 
3 - Power Produced at minute m 
4 - Energy Consumed since the beginning of the day 
5 - Energy Produced since the beginning of the day 
6 - Energy Lost since the beginning of the day 
 
0 ; 5437224.912901673 ; 6.340824241159613E8 ; 0.0 ; 0.0 ; 0.0
1 ; 5479499.131976659 ; 6.349921105329218E8 ; 5437224.912901673 ; 6.340824241159613E8 ; 0.0
2 ; 5525830.177408118 ; 6.377552823831636E8 ; 1.0916724044878332E7 ; 1.269074534648883E9 ; 0.0
3 ; 5568919.852167672 ; 6.423719640979486E8 ; 1.644255422228645E7 ; 1.9068298170320468E9 ; 0.0
4 ; 5630003.287805011 ; 6.488421777207106E8 ; 2.201147407445412E7 ; 2.5492017811299953E9 ; 0.0
5 ; 5698711.50233329 ; 6.571659427357424E8 ; 2.764147736225913E7 ; 3.198043958850706E9 ; 0.0
6 ; 5799341.341801346 ; 6.673432759125752E8 ; 3.334018886459242E7 ; 3.8552099015864487E9 ; 0.0
7 ; 5925318.518145202 ; 6.793741911688703E8 ; 3.913953020639377E7 ; 4.522553177499023E9 ; 0.0
8 ; 6110301.681441433 ; 6.932586994543846E8 ; 4.5064848724538974E7 ; 5.201927368667893E9 ; 0.0
9 ; 6396741.097358765 ; 7.089968086582458E8 ; 5.117515040598041E7 ; 5.895186068122278E9 ; 0.0
10 ; 6831382.018154578 ; 7.265885235413563E8 ; 5.757189150333917E7 ; 6.604182876780524E9 ; 0.0
11 ; 7519921.5394762475 ; 7.46033845695283E8 ; 6.440327352149375E7 ; 7.33077140032188E9 ; 0.0
12 ; 8628616.601829268 ; 7.673327735284588E8 ; 7.192319506097E7 ; 8.076805246017163E9 ; 0.0
13 ; 9697580.351702034 ; 7.904853022799814E8 ; 8.055181166279927E7 ; 8.844138019545622E9 ; 0.0
14 ; 9828086.901225453 ; 8.154914240607234E8 ; 9.02493920145013E7 ; 9.634623321825603E9 ; 0.0
15 ; 9880579.081421478 ; 8.423511279209275E8 ; 1.0007747891572675E8 ; 1.0450114745886328E10 ; 0.0
16 ; 9931710.750731729 ; 8.710643999429327E8 ; 1.0995805799714823E8 ; 1.1292465873807255E10 ; 0.0
17 ; 9991860.010246059 ; 9.016312233572079E8 ; 1.1988976874787995E8 ; 1.2163530273750187E10 ; 0.0
18 ; 1.0040050268662503E7 ; 9.340515786794599E8 ; 1.29881628758126E8 ; 1.3065161497107395E10 ; 0.0
19 ; 1.0083952612183044E7 ; 9.683254438662552E8 ; 1.399216790267885E8 ; 1.3999213075786856E10 ; 0.0
20 ; 1.014306847874486E7 ; 1.0044527944863315E9 ; 1.5000563163897154E8 ; 1.496753851965311E10 ; 0.0
21 ; 1.0200758624180757E7 ; 1.0424336039046373E9 ; 1.601487001177164E8 ; 1.5971991314139442E10 ; 0.0
22 ; 1.02517363328054E7 ; 1.0822678434760373E9 ; 1.7034945874189717E8 ; 1.7014424918044079E10 ; 0.0
23 ; 1.0302114274307715E7 ; 1.1239554827456565E9 ; 1.8060119507470256E8 ; 1.8096692761520115E10 ; 0.0
24 ; 1.0363594953416303E7 ; 1.1674964896529036E9 ; 1.909033093490103E8 ; 1.922064824426577E10 ; 0.0
25 ; 1.042005103548621E7 ; 1.2050190761254804E9 ; 2.0126690430242658E8 ; 2.0388144733918674E10 ; 0.0
26 ; 1.046292577933409E7 ; 1.2050444945039616E9 ; 2.116869553379128E8 ; 2.1593163810044155E10 ; 0.0
27 ; 1.0521366137554578E7 ; 1.2050713248903766E9 ; 2.221498811172469E8 ; 2.279820830454812E10 ; 0.0
28 ; 1.057570625805057E7 ; 1.2050995308219125E9 ; 2.3267124725480148E8 ; 2.4003279629438496E10 ; 0.0
29 ; 1.0629301882504968E7 ; 1.2051290752156057E9 ; 2.4324695351285204E8 ; 2.5208379160260406E10 ; 0.0
30 ; 1.068050317029081E7 ; 1.2051599205442677E9 ; 2.53876255395357E8 ; 2.6413508235476013E10 ; 0.0
31 ; 1.0728599317547753E7 ; 1.205192029001977E9 ; 2.645567585656478E8 ; 2.761866815602028E10 ; 0.0
32 ; 1.0777283758233383E7 ; 1.2052253626582875E9 ; 2.752853578831956E8 ; 2.8823860185022255E10 ; 0.0
33 ; 1.082521792521681E7 ; 1.205259883600577E9 ; 2.8606264164142895E8 ; 3.0029085547680542E10 ; 0.0
34 ; 1.088046560842888E7 ; 1.2052955540642166E9 ; 2.9688785956664574E8 ; 3.123434543128112E10 ; 0.0
35 ; 1.0925096837319527E7 ; 1.2053323365504568E9 ; 3.0776832517507464E8 ; 3.2439640985345337E10 ; 0.0
36 ; 1.0971281055261774E7 ; 1.205370193932129E9 ; 3.186934220123942E8 ; 3.3644973321895794E10 ; 0.0
37 ; 1.1006725315885238E7 ; 1.2054090895474224E9 ; 3.29664703067656E8 ; 3.485034351582793E10 ; 0.0
38 ; 1.1052225820863847E7 ; 1.2054489872821372E9 ; 3.406714283835412E8 ; 3.605575260537535E10 ; 0.0
39 ; 1.1092093555226428E7 ; 1.2054898516409147E9 ; 3.5172365420440507E8 ; 3.7261201592657486E10 ; 0.0
40 ; 1.1133797086377949E7 ; 1.2055316478080451E9 ; 3.628157477596315E8 ; 3.84666914442984E10 ; 0.0
41 ; 1.116969948991602E7 ; 1.205574341698494E9 ; 3.739495448460095E8 ; 3.9672223092106445E10 ; 0.0
42 ; 1.120841037780205E7 ; 1.2056178999998446E9 ; 3.851192443359255E8 ; 4.087779743380494E10 ; 0.0
43 ; 1.1239472452846106E7 ; 1.2056622902058587E9 ; 3.963276547137276E8 ; 4.208341533380479E10 ; 0.0
44 ; 1.1278156998731283E7 ; 1.2057074806423824E9 ; 4.075671271665737E8 ; 4.328907762401064E10 ; 0.0
45 ; 1.1310045046495577E7 ; 1.2057534404862955E9 ; 4.1884528416530496E8 ; 4.449478510465302E10 ; 0.0
46 ; 1.1332886478100978E7 ; 1.2058001397782016E9 ; 4.301553292118005E8 ; 4.570053854513932E10 ; 0.0
47 ; 1.1367806247148972E7 ; 1.2058475494295235E9 ; 4.414882156899015E8 ; 4.690633868491752E10 ; 0.0
48 ; 1.1388352165048081E7 ; 1.2058956412246346E9 ; 4.5285602193705046E8 ; 4.8112186234347046E10 ; 0.0
49 ; 1.1413106916409623E7 ; 1.2059443878186283E9 ; 4.642443741020985E8 ; 4.931808187557168E10 ; 0.0
50 ; 1.143325796375321E7 ; 1.2059937627312782E9 ; 4.7565748101850814E8 ; 5.0524026263390305E10 ; 0.0
51 ; 1.1451352834589818E7 ; 1.206043740337711E9 ; 4.8709073898226136E8 ; 5.173002002612158E10 ; 0.0
52 ; 1.147739330746007E7 ; 1.2060942958562646E9 ; 4.985420918168512E8 ; 5.293606376645929E10 ; 0.0
53 ; 1.1496713926433641E7 ; 1.2061454053339677E9 ; 5.1001948512431127E8 ; 5.414215806231555E10 ; 0.0
54 ; 1.151088846980599E7 ; 1.206197045630038E9 ; 5.215161990507449E8 ; 5.534830346764952E10 ; 0.0
55 ; 1.1527623535439547E7 ; 1.2062491943977513E9 ; 5.330270875205509E8 ; 5.655450051327956E10 ; 0.0
56 ; 1.1542640019006262E7 ; 1.2063018300650024E9 ; 5.445547110559905E8 ; 5.776074970767731E10 ; 0.0
57 ; 1.1571045858393855E7 ; 1.206354931813848E9 ; 5.560973510749967E8 ; 5.896705153774231E10 ; 0.0
58 ; 1.1589683023594286E7 ; 1.2064084795592732E9 ; 5.676683969333906E8 ; 6.017340646955616E10 ; 0.0
59 ; 1.160361850037653E7 ; 1.2064624539274163E9 ; 5.792580799569849E8 ; 6.137981494911543E10 ; 0.0
60 ; 1.1618445256503716E7 ; 1.2065168362334387E9 ; 5.908616984573615E8 ; 6.258627740304285E10 ; 0.0
61 ; 1.163504856554237E7 ; 1.2065716084592125E9 ; 6.024801437138652E8 ; 6.379279423927628E10 ; 0.0
62 ; 1.1662168572423175E7 ; 1.2066267532309737E9 ; 6.141151922794075E8 ; 6.49993658477355E10 ; 0.0
63 ; 1.1674378847681992E7 ; 1.2066822537970629E9 ; 6.257773608518307E8 ; 6.620599260096647E10 ; 0.0
64 ; 1.1689839506711747E7 ; 1.2067380940058653E9 ; 6.374517396995127E8 ; 6.7412674854763535E10 ; 0.0
65 ; 1.1707875063050512E7 ; 1.2067942582840378E9 ; 6.491415792062244E8 ; 6.86194129487694E10 ; 0.0
66 ; 1.1722571175055297E7 ; 1.2068507316150982E9 ; 6.60849454269275E8 ; 6.982620720705344E10 ; 0.0
67 ; 1.174066035980814E7 ; 1.20690749951844E9 ; 6.725720254443302E8 ; 7.103305793866853E10 ; 0.0
68 ; 1.1748985145883251E7 ; 1.2069645480288227E9 ; 6.843126858041383E8 ; 7.223996543818697E10 ; 0.0
69 ; 1.1764464809315808E7 ; 1.2070218636763756E9 ; 6.960616709500215E8 ; 7.344692998621579E10 ; 0.0
70 ; 1.177509970670926E7 ; 1.2070794334671507E9 ; 7.078261357593373E8 ; 7.465395184989217E10 ; 0.0
71 ; 1.1796758404344674E7 ; 1.2071372448642435E9 ; 7.196012354660466E8 ; 7.586103128335931E10 ; 0.0
72 ; 1.1809778773799725E7 ; 1.2071952857694957E9 ; 7.313979938703912E8 ; 7.706816852822356E10 ; 0.0
73 ; 1.1825162003117708E7 ; 1.2072535445058014E9 ; 7.43207772644191E8 ; 7.827536381399306E10 ; 0.0
74 ; 1.1837864233412359E7 ; 1.2073120098000064E9 ; 7.550329346473087E8 ; 7.948261735849886E10 ; 0.0
75 ; 1.184866738213902E7 ; 1.2073706707664135E9 ; 7.668707988807211E8 ; 8.068992936829886E10 ; 0.0
76 ; 1.186553774812277E7 ; 1.2074295168908854E9 ; 7.787194662628601E8 ; 8.189730003906528E10 ; 0.0
77 ; 1.1875953431748189E7 ; 1.2074885380155413E9 ; 7.905850040109829E8 ; 8.310472955595616E10 ; 0.0
78 ; 1.187194429476484E7 ; 1.207547724324039E9 ; 8.02460957442731E8 ; 8.431221809397171E10 ; 0.0
79 ; 1.1874366938036721E7 ; 1.207607066327428E9 ; 8.143329017374959E8 ; 8.551976581829575E10 ; 0.0
80 ; 1.1870698948005602E7 ; 1.207666554850569E9 ; 8.262072686755326E8 ; 8.672737288462317E10 ; 0.0
81 ; 1.1869557107308984E7 ; 1.207726181019098E9 ; 8.380779676235381E8 ; 8.793503943947374E10 ; 0.0
82 ; 1.1866290917038437E7 ; 1.2077859362469268E9 ; 8.499475247308471E8 ; 8.914276562049284E10 ; 0.0
83 ; 1.1867771835155772E7 ; 1.2078458122242603E9 ; 8.618138156478856E8 ; 9.035055155673978E10 ; 0.0
84 ; 1.1862114650864203E7 ; 1.207905800906116E9 ; 8.736815874830413E8 ; 9.155839736896404E10 ; 0.0
85 ; 1.1862443143594781E7 ; 1.2079658945013309E9 ; 8.855437021339055E8 ; 9.276630316987015E10 ; 0.0
86 ; 1.1848666824680697E7 ; 1.208026085462035E9 ; 8.974061452775003E8 ; 9.397426906437148E10 ; 0.0
87 ; 1.1850391617605701E7 ; 1.2080863664735796E9 ; 9.09254812102181E8 ; 9.518229514983351E10 ; 0.0
88 ; 1.1849846338892965E7 ; 1.2081467304449003E9 ; 9.211052037197866E8 ; 9.63903815163071E10 ; 0.0
89 ; 1.1843634064766645E7 ; 1.208207170499298E9 ; 9.329550500586796E8 ; 9.7598528246752E10 ; 0.0
90 ; 1.1838962029308757E7 ; 1.2082676799656267E9 ; 9.447986841234462E8 ; 9.88067354172513E10 ; 0.0
91 ; 1.1840475972559184E7 ; 1.2083282523698611E9 ; 9.56637646152755E8 ; 1.0001500309721692E11 ; 0.0
92 ; 1.1839619243004598E7 ; 1.208388881427042E9 ; 9.684781221253142E8 ; 1.0122333134958678E11 ; 0.0
93 ; 1.1822426066977054E7 ; 1.208449561033575E9 ; 9.803177413683188E8 ; 1.0243172023101382E11 ; 0.0
94 ; 1.1826051748002462E7 ; 1.2085102852598658E9 ; 9.921401674352958E8 ; 1.036401697920474E11 ; 0.0
95 ; 1.1813711058166312E7 ; 1.208571048343289E9 ; 1.0039662191832982E9 ; 1.0484868007730727E11 ; 0.0
96 ; 1.1805729483712714E7 ; 1.2086318446814616E9 ; 1.0157799302414645E9 ; 1.0605725112565056E11 ; 0.0
97 ; 1.1797823630587574E7 ; 1.2086926688258207E9 ; 1.0275856597251772E9 ; 1.0726588297033202E11 ; 0.0
98 ; 1.1796813433581151E7 ; 1.208753515475482E9 ; 1.0393834833557647E9 ; 1.0847457563915784E11 ; 0.0
99 ; 1.1788883968306396E7 ; 1.2088143794713726E9 ; 1.0511802967893459E9 ; 1.0968332915463332E11 ; 0.0
100 ; 1.1787836784867048E7 ; 1.208875255790626E9 ; 1.0629691807576523E9 ; 1.1089214353410469E11 ; 0.0
101 ; 1.1771413326438366E7 ; 1.2089361395412226E9 ; 1.0747570175425193E9 ; 1.1210101878989531E11 ; 0.0
102 ; 1.1771348602513973E7 ; 1.2089970259568686E9 ; 1.0865284308689578E9 ; 1.1330995492943654E11 ; 0.0
103 ; 1.176331898874686E7 ; 1.2090579103921032E9 ; 1.0982997794714718E9 ; 1.145189519553934E11 ; 0.0
104 ; 1.1756143914867852E7 ; 1.20911878831762E9 ; 1.1100630984602187E9 ; 1.157280098657855E11 ; 0.0
105 ; 1.1744573663532674E7 ; 1.209179655315796E9 ; 1.1218192423750865E9 ; 1.1693712865410313E11 ; 0.0
106 ; 1.1739049527538681E7 ; 1.209240507076416E9 ; 1.1335638160386193E9 ; 1.1814630830941893E11 ; 0.0
107 ; 1.1720299187407106E7 ; 1.2093013393925872E9 ; 1.145302865566158E9 ; 1.1935554881649535E11 ; 0.0
108 ; 1.1718099535871625E7 ; 1.2093621481568315E9 ; 1.157023164753565E9 ; 1.2056485015588794E11 ; 0.0
109 ; 1.1704781113588054E7 ; 1.209422929357348E9 ; 1.1687412642894368E9 ; 1.2177421230404477E11 ; 0.0
110 ; 1.169874560379328E7 ; 1.2094836790744405E9 ; 1.180446045403025E9 ; 1.2298363523340211E11 ; 0.0
111 ; 1.1682569201203112E7 ; 1.2095443934770994E9 ; 1.1921447910068183E9 ; 1.2419311891247656E11 ; 0.0
112 ; 1.1670939158391615E7 ; 1.2096050688197317E9 ; 1.2038273602080214E9 ; 1.2540266330595366E11 ; 0.0
113 ; 1.1660995287060533E7 ; 1.2096657014390333E9 ; 1.215498299366413E9 ; 1.2661226837477339E11 ; 0.0
114 ; 1.1650616993061343E7 ; 1.2097262877509947E9 ; 1.2271592946534736E9 ; 1.2782193407621242E11 ; 0.0
115 ; 1.164418995323967E7 ; 1.2097868242480378E9 ; 1.238809911646535E9 ; 1.2903166036396341E11 ; 0.0
116 ; 1.162891798186164E7 ; 1.2098473074962742E9 ; 1.2504541015997746E9 ; 1.3024144718821144E11 ; 0.0
117 ; 1.1613545649916366E7 ; 1.2099077341328788E9 ; 1.2620830195816362E9 ; 1.3145129449570772E11 ; 0.0
118 ; 1.1600615013877917E7 ; 1.2099681008635795E9 ; 1.2736965652315526E9 ; 1.3266120222984059E11 ; 0.0
119 ; 1.1590826479725596E7 ; 1.210028404460249E9 ; 1.2852971802454305E9 ; 1.3387117033070418E11 ; 0.0
120 ; 1.1571619539831076E7 ; 1.2100886417586014E9 ; 1.296888006725156E9 ; 1.3508119873516443E11 ; 0.0
121 ; 1.1565747136603862E7 ; 1.2101488096559846E9 ; 1.3084596262649872E9 ; 1.3629128737692303E11 ; 0.0
122 ; 1.1543663666491982E7 ; 1.2102089051092653E9 ; 1.320025373401591E9 ; 1.37501436186579E11 ; 0.0
123 ; 1.1534961042066801E7 ; 1.2102689251328032E9 ; 1.331569037068083E9 ; 1.3871164509168826E11 ; 0.0
124 ; 1.1516827277567256E7 ; 1.2103288667965088E9 ; 1.3431039981101499E9 ; 1.3992191401682108E11 ; 0.0
125 ; 1.1497338548774268E7 ; 1.2103887272239823E9 ; 1.354620825387717E9 ; 1.4113224288361758E11 ; 0.0
126 ; 1.1493415671821555E7 ; 1.2104485035907297E9 ; 1.3661181639364913E9 ; 1.4234263161084155E11 ; 0.0
127 ; 1.1474719270620994E7 ; 1.2105081931224508E9 ; 1.3776115796083128E9 ; 1.4355308011443228E11 ; 0.0
128 ; 1.1464638453061895E7 ; 1.2105677930934002E9 ; 1.389086298878934E9 ; 1.4476358830755472E11 ; 0.0
129 ; 1.1439815728398215E7 ; 1.2106273008248124E9 ; 1.4005509373319957E9 ; 1.4597415610064813E11 ; 0.0
130 ; 1.142545402060797E7 ; 1.2106867136833932E9 ; 1.411990753060394E9 ; 1.4718478340147293E11 ; 0.0
131 ; 1.1392927919483269E7 ; 1.2107460290798714E9 ; 1.423416207081002E9 ; 1.483954701151563E11 ; 0.0
132 ; 1.1360000947607284E7 ; 1.2108052444676085E9 ; 1.4348091350004852E9 ; 1.4960621614423618E11 ; 0.0
133 ; 1.1333383145985022E7 ; 1.2108643573412647E9 ; 1.4461691359480925E9 ; 1.508170213887038E11 ; 0.0
134 ; 1.1299742711382689E7 ; 1.21092336523552E9 ; 1.4575025190940776E9 ; 1.5202788574604507E11 ; 0.0
135 ; 1.126674708095475E7 ; 1.2109822657238421E9 ; 1.4688022618054602E9 ; 1.532388091112806E11 ; 0.0
136 ; 1.124022552317598E7 ; 1.211041056417309E9 ; 1.480069008886415E9 ; 1.5444979137700446E11 ; 0.0
137 ; 1.1208221342040475E7 ; 1.2110997349634738E9 ; 1.491309234409591E9 ; 1.5566083243342175E11 ; 0.0
138 ; 1.1179256106355002E7 ; 1.2111582990452747E9 ; 1.5025174557516315E9 ; 1.5687193216838522E11 ; 0.0
139 ; 1.1144461525416452E7 ; 1.2112167463799908E9 ; 1.5136967118579865E9 ; 1.580830904674305E11 ; 0.0
140 ; 1.1113937104921868E7 ; 1.2112750747182353E9 ; 1.5248411733834028E9 ; 1.5929430721381052E11 ; 0.0
141 ; 1.1072909013108205E7 ; 1.2113332818429897E9 ; 1.5359551104883246E9 ; 1.6050558228852875E11 ; 0.0
142 ; 1.1046938133490218E7 ; 1.2113913655686755E9 ; 1.547028019501433E9 ; 1.6171691557037173E11 ; 0.0
143 ; 1.1015425223454155E7 ; 1.2114493237402616E9 ; 1.5580749576349232E9 ; 1.629283069359404E11 ; 0.0
144 ; 1.09817987457661E7 ; 1.2115071542324045E9 ; 1.5690903828583775E9 ; 1.6413975625968066E11 ; 0.0
145 ; 1.0969554723444171E7 ; 1.2115648549486248E9 ; 1.5800721816041436E9 ; 1.6535126341391306E11 ; 0.0
146 ; 1.094773742979875E7 ; 1.2116224238205118E9 ; 1.5910417363275878E9 ; 1.665628282688617E11 ; 0.0
147 ; 1.0930005187712668E7 ; 1.2116798588069606E9 ; 1.6019894737573867E9 ; 1.6777445069268222E11 ; 0.0
148 ; 1.0914798812483426E7 ; 1.211737157893437E9 ; 1.6129194789450994E9 ; 1.6898613055148917E11 ; 0.0
149 ; 1.0899006264539968E7 ; 1.2117943190912695E9 ; 1.6238342777575827E9 ; 1.701978677093826E11 ; 0.0
150 ; 1.0875567768290877E7 ; 1.2118513404369712E9 ; 1.6347332840221226E9 ; 1.7140966202847388E11 ; 0.0
151 ; 1.0855752306285566E7 ; 1.2119082199915824E9 ; 1.6456088517904134E9 ; 1.7262151336891086E11 ; 0.0
152 ; 1.0848741793606281E7 ; 1.211964955840042E9 ; 1.656464604096699E9 ; 1.7383342158890244E11 ; 0.0
153 ; 1.0827905616617743E7 ; 1.21202154609058E9 ; 1.6673133458903053E9 ; 1.750453865447425E11 ; 0.0
154 ; 1.0815773454294978E7 ; 1.2120779888741307E9 ; 1.678141251506923E9 ; 1.7625740809083307E11 ; 0.0
155 ; 1.0800975909208193E7 ; 1.2121342823437734E9 ; 1.6889570249612179E9 ; 1.774694860797072E11 ; 0.0
156 ; 1.0778151260477867E7 ; 1.2121904246741877E9 ; 1.6997580008704262E9 ; 1.78681620362051E11 ; 0.0
157 ; 1.0761036619846951E7 ; 1.2122464140611315E9 ; 1.710536152130904E9 ; 1.798938107867252E11 ; 0.0
158 ; 1.0746796753170546E7 ; 1.2123022487209382E9 ; 1.721297188750751E9 ; 1.8110605720078632E11 ; 0.0
159 ; 1.072638462619669E7 ; 1.2123579268900316E9 ; 1.7320439855039215E9 ; 1.8231835944950726E11 ; 0.0
160 ; 1.0709777559720136E7 ; 1.2124134468244576E9 ; 1.7427703701301181E9 ; 1.835307173763973E11 ; 0.0
161 ; 1.068812073404643E7 ; 1.2124688067994351E9 ; 1.7534801476898382E9 ; 1.8474313082322177E11 ; 0.0
162 ; 1.0679179958784988E7 ; 1.2125240051089199E9 ; 1.7641682684238846E9 ; 1.859555996300212E11 ; 0.0
163 ; 1.0657315953189846E7 ; 1.2125790400651877E9 ; 1.7748474483826697E9 ; 1.8716812363513013E11 ; 0.0
164 ; 1.063806944539328E7 ; 1.2126339099984295E9 ; 1.7855047643358595E9 ; 1.883807026751953E11 ; 0.0
165 ; 1.0621205758023154E7 ; 1.2126886132563617E9 ; 1.7961428337812529E9 ; 1.8959333658519376E11 ; 0.0
166 ; 1.059621097614681E7 ; 1.2127431482038522E9 ; 1.8067640395392761E9 ; 1.908060251984501E11 ; 0.0
167 ; 1.0589902906111587E7 ; 1.212797513222556E9 ; 1.8173602505154228E9 ; 1.9201876834665396E11 ; 0.0
168 ; 1.057146143498237E7 ; 1.2128517067105672E9 ; 1.8279501534215343E9 ; 1.9323156585987653E11 ; 0.0
169 ; 1.054639419407864E7 ; 1.212905727082082E9 ; 1.8385216148565166E9 ; 1.944444175665871E11 ; 0.0
170 ; 1.0529664537990775E7 ; 1.2129595727670722E9 ; 1.8490680090505953E9 ; 1.956573232936692E11 ; 0.0
171 ; 1.0512080002735805E7 ; 1.2130132422109723E9 ; 1.859597673588586E9 ; 1.9687028286643625E11 ; 0.0
172 ; 1.0494454359531451E7 ; 1.2130667338743756E9 ; 1.870109753591322E9 ; 1.9808329610864722E11 ; 0.0
173 ; 1.0474777694707636E7 ; 1.213120046232742E9 ; 1.8806042079508533E9 ; 1.992963628425216E11 ; 0.0
174 ; 1.04676280795374E7 ; 1.213173177776117E9 ; 1.891078985645561E9 ; 2.0050948288875433E11 ; 0.0
175 ; 1.0454197074253248E7 ; 1.2132261270088568E9 ; 1.9015466137250984E9 ; 2.0172265606653046E11 ; 0.0
176 ; 1.0431930368227959E7 ; 1.2132788924493666E9 ; 1.9120008107993517E9 ; 2.029358821935393E11 ; 0.0
177 ; 1.04223236653308E7 ; 1.2133314726298459E9 ; 1.9224327411675797E9 ; 2.0414916108598868E11 ; 0.0
178 ; 1.041302026426271E7 ; 1.213383866096043E9 ; 1.9328550648329105E9 ; 2.0536249255861853E11 ; 0.0
179 ; 1.0405069277582735E7 ; 1.2134360714070194E9 ; 1.9432680850971732E9 ; 2.0657587642471457E11 ; 0.0
180 ; 1.0386683013418239E7 ; 1.213488087134918E9 ; 1.9536731543747559E9 ; 2.0778931249612158E11 ; 0.0
181 ; 1.0373923135968521E7 ; 1.2135399118647447E9 ; 1.964059837388174E9 ; 2.090028005832565E11 ; 0.0
182 ; 1.0365982429711804E7 ; 1.2135915441941528E9 ; 1.9744337605241425E9 ; 2.1021634049512125E11 ; 0.0
183 ; 1.0353721972663756E7 ; 1.2136429827332377E9 ; 1.9847997429538543E9 ; 2.114299320393154E11 ; 0.0
184 ; 1.0331071108510891E7 ; 1.2136942261043372E9 ; 1.995153464926518E9 ; 2.1264357502204865E11 ; 0.0
185 ; 1.0324009400539927E7 ; 1.2137452729418378E9 ; 2.005484536035029E9 ; 2.1385726924815298E11 ; 0.0
186 ; 1.031884573095717E7 ; 1.21379612189199E9 ; 2.0158085454355688E9 ; 2.1507101452109482E11 ; 0.0
187 ; 1.0301990123522166E7 ; 1.2138467716127267E9 ; 2.026127391166526E9 ; 2.1628481064298682E11 ; 0.0
188 ; 1.0285515928428542E7 ; 1.2138972207734911E9 ; 2.0364293812900484E9 ; 2.1749865741459955E11 ; 0.0
189 ; 1.0274508098555874E7 ; 1.213947468055066E9 ; 2.046714897218477E9 ; 2.1871255463537305E11 ; 0.0
190 ; 1.025530407422113E7 ; 1.2139975121494136E9 ; 2.0569894053170328E9 ; 2.199265021034281E11 ; 0.0
191 ; 1.0254821232351962E7 ; 1.2140473517595165E9 ; 2.067244709391254E9 ; 2.211404996155775E11 ; 0.0
192 ; 1.0238269555937637E7 ; 1.2140969855992272E9 ; 2.077499530623606E9 ; 2.2235454696733704E11 ; 0.0
193 ; 1.0225815174717052E7 ; 1.2141464123931198E9 ; 2.0877378001795435E9 ; 2.2356864395293625E11 ; 0.0
194 ; 1.020846812313506E7 ; 1.2141956308763492E9 ; 2.0979636153542604E9 ; 2.2478279036532938E11 ; 0.0
195 ; 1.0196215887017842E7 ; 1.2142446397945135E9 ; 2.1081720834773955E9 ; 2.2599698599620572E11 ; 0.0
