CSV File for the Network on Day 238
1 - Minute m 
2 - Power Consumed at minute m 
3 - Power Produced at minute m 
4 - Energy Consumed since the beginning of the day 
5 - Energy Produced since the beginning of the day 
6 - Energy Lost since the beginning of the day 
 
0 ; 4955621.697427487 ; 6.32090892195372E8 ; 0.0 ; 0.0 ; 0.0
1 ; 5000059.022425536 ; 6.329834094799657E8 ; 4955621.697427487 ; 6.32090892195372E8 ; 0.0
2 ; 5040885.63560342 ; 6.357303948761834E8 ; 9955680.719853023 ; 1.2650743016753378E9 ; 0.0
3 ; 5092587.966589478 ; 6.403320853385143E8 ; 1.4996566355456444E7 ; 1.9008046965515213E9 ; 0.0
4 ; 5146957.286348229 ; 6.46788720862562E8 ; 2.0089154322045922E7 ; 2.5411367818900356E9 ; 0.0
5 ; 5226237.879013039 ; 6.551005376636682E8 ; 2.5236111608394153E7 ; 3.187925502752598E9 ; 0.0
6 ; 5316670.872674866 ; 6.652677598458948E8 ; 3.0462349487407193E7 ; 3.843026040416266E9 ; 0.0
7 ; 5442494.694114144 ; 6.772905899478569E8 ; 3.577902036008206E7 ; 4.508293800262161E9 ; 0.0
8 ; 5636728.754858653 ; 6.911691990503721E8 ; 4.12215150541962E7 ; 5.185584390210018E9 ; 0.0
9 ; 5917190.064809024 ; 7.069037173928046E8 ; 4.685824380905485E7 ; 5.87675358926039E9 ; 0.0
10 ; 6357574.326466677 ; 7.24494226583566E8 ; 5.2775433873863876E7 ; 6.583657306653194E9 ; 0.0
11 ; 7044160.946979996 ; 7.439407544298418E8 ; 5.9133008200330555E7 ; 7.30815153323676E9 ; 0.0
12 ; 8156234.206327682 ; 7.652432731244464E8 ; 6.6177169147310555E7 ; 8.052092287666602E9 ; 0.0
13 ; 9222447.02365458 ; 7.884017010589678E8 ; 7.433340335363823E7 ; 8.817335560791048E9 ; 0.0
14 ; 9349617.744264573 ; 8.134159079940431E8 ; 8.355585037729281E7 ; 9.605737261850016E9 ; 0.0
15 ; 9403996.09452811 ; 8.402857228488532E8 ; 9.290546812155738E7 ; 1.0419153169844059E10 ; 0.0
16 ; 9458087.418055112 ; 8.690109430847842E8 ; 1.023094642160855E8 ; 1.1259438892692913E10 ; 0.0
17 ; 9515339.600936634 ; 8.995913445977736E8 ; 1.1176755163414061E8 ; 1.2128449835777697E10 ; 0.0
18 ; 9563489.060810456 ; 9.320266911724796E8 ; 1.2128289123507725E8 ; 1.302804118037547E10 ; 0.0
19 ; 9620020.11521548 ; 9.663167428132991E8 ; 1.3084638029588771E8 ; 1.3960067871547949E10 ; 0.0
20 ; 9677172.680185467 ; 1.0024612625657421E9 ; 1.404664004111032E8 ; 1.4926384614361248E10 ; 0.0
21 ; 9733332.230209954 ; 1.040460021708458E9 ; 1.5014357309128866E8 ; 1.592884587692699E10 ; 0.0
22 ; 9785701.84059282 ; 1.0803128033941398E9 ; 1.598769053214986E8 ; 1.6969305898635448E10 ; 0.0
23 ; 9843576.839894047 ; 1.1220194049382408E9 ; 1.6966260716209143E8 ; 1.8049618702029587E10 ; 0.0
24 ; 9891912.27965005 ; 1.1655796390083175E9 ; 1.795061840019855E8 ; 1.9171638106967827E10 ; 0.0
25 ; 9950042.514404757 ; 1.2031215793615673E9 ; 1.8939809628163555E8 ; 2.0337217745976143E10 ; 0.0
26 ; 1.0002994656155186E7 ; 1.2031663568085206E9 ; 1.993481387960403E8 ; 2.154033932533771E10 ; 0.0
27 ; 1.0063721484120399E7 ; 1.2032124456957297E9 ; 2.093511334521955E8 ; 2.2743505682146233E10 ; 0.0
28 ; 1.0114278929768417E7 ; 1.2032597184664636E9 ; 2.194148549363159E8 ; 2.394671812784196E10 ; 0.0
29 ; 1.0167868033004664E7 ; 1.2033080603642538E9 ; 2.295291338660843E8 ; 2.5149977846308426E10 ; 0.0
30 ; 1.0214742739386447E7 ; 1.203357368325231E9 ; 2.3969700189908898E8 ; 2.635328590667268E10 ; 0.0
31 ; 1.0277668105921365E7 ; 1.2034075498764498E9 ; 2.4991174463847542E8 ; 2.755664327499791E10 ; 0.0
32 ; 1.0325242933793E7 ; 1.2034585220776215E9 ; 2.6018941274439678E8 ; 2.876005082487436E10 ; 0.0
33 ; 1.0368891078624409E7 ; 1.2035102105286999E9 ; 2.7051465567818975E8 ; 2.996350934695198E10 ; 0.0
34 ; 1.0420530681935355E7 ; 1.2035625484550977E9 ; 2.808835467568142E8 ; 3.1167019557480682E10 ; 0.0
35 ; 1.0455152549276525E7 ; 1.203615475875007E9 ; 2.9130407743874955E8 ; 3.237058210593578E10 ; 0.0
36 ; 1.051079016461793E7 ; 1.2036689388484604E9 ; 3.017592299880261E8 ; 3.3574197581810787E10 ; 0.0
37 ; 1.0549558839205444E7 ; 1.203722888804756E9 ; 3.1227002015264404E8 ; 3.477786652065925E10 ; 0.0
38 ; 1.0595887353669234E7 ; 1.2037772819431043E9 ; 3.228195789918495E8 ; 3.5981589409464005E10 ; 0.0
39 ; 1.0645417836219208E7 ; 1.203832078700499E9 ; 3.334154663455187E8 ; 3.718536669140711E10 ; 0.0
40 ; 1.0676899689637693E7 ; 1.2038872432804875E9 ; 3.440608841817379E8 ; 3.838919877010761E10 ; 0.0
41 ; 1.0714556591794033E7 ; 1.203942743236607E9 ; 3.547377838713756E8 ; 3.95930860133881E10 ; 0.0
42 ; 1.0758600275120704E7 ; 1.2039985491045423E9 ; 3.6545234046316963E8 ; 4.079702875662471E10 ; 0.0
43 ; 1.079831844369571E7 ; 1.2040546340774834E9 ; 3.762109407382903E8 ; 4.2001027305729256E10 ; 0.0
44 ; 1.0825338431346022E7 ; 1.2041109737196438E9 ; 3.8700925918198603E8 ; 4.320508193980674E10 ; 0.0
45 ; 1.0858701667341901E7 ; 1.2041675457133987E9 ; 3.9783459761333203E8 ; 4.440919291352638E10 ; 0.0
46 ; 1.0892254889614427E7 ; 1.2042243296359832E9 ; 4.086932992806739E8 ; 4.5613360459239784E10 ; 0.0
47 ; 1.0914063068768654E7 ; 1.2042813067621565E9 ; 4.195855541702883E8 ; 4.681758478887577E10 ; 0.0
48 ; 1.094280549555988E7 ; 1.2043384598896556E9 ; 4.30499617239057E8 ; 4.8021866095637924E10 ; 0.0
49 ; 1.0964176376097465E7 ; 1.204395773184643E9 ; 4.414424227346169E8 ; 4.922620455552758E10 ; 0.0
50 ; 1.099051690957024E7 ; 1.2044532320447073E9 ; 4.524065991107143E8 ; 5.043060032871223E10 ; 0.0
51 ; 1.101067953093731E7 ; 1.2045108229772696E9 ; 4.6339711602028453E8 ; 5.1635053560756935E10 ; 0.0
52 ; 1.1031360904072128E7 ; 1.2045685334915226E9 ; 4.7440779555122185E8 ; 5.283956438373421E10 ; 0.0
53 ; 1.1048925392178763E7 ; 1.204626352002267E9 ; 4.8543915645529395E8 ; 5.404413291722573E10 ; 0.0
54 ; 1.1069498665593015E7 ; 1.2046842677442188E9 ; 4.964880818474727E8 ; 5.5248759269228E10 ; 0.0
55 ; 1.109048842133352E7 ; 1.2047422706955373E9 ; 5.0755758051306576E8 ; 5.645344353697221E10 ; 0.0
56 ; 1.111027228239879E7 ; 1.2048003515094833E9 ; 5.1864806893439925E8 ; 5.765818580766775E10 ; 0.0
57 ; 1.112606258544545E7 ; 1.204858501453257E9 ; 5.2975834121679807E8 ; 5.886298615917723E10 ; 0.0
58 ; 1.1147873281794945E7 ; 1.204916712353184E9 ; 5.408844038022435E8 ; 6.0067844660630486E10 ; 0.0
59 ; 1.1169267998965494E7 ; 1.204974976545514E9 ; 5.520322770840384E8 ; 6.127276137298367E10 ; 0.0
60 ; 1.1187411842548601E7 ; 1.2050332868322039E9 ; 5.632015450830039E8 ; 6.247773634952919E10 ; 0.0
61 ; 1.1199951255857205E7 ; 1.2050916364411135E9 ; 5.743889569255525E8 ; 6.36827696363614E10 ; 0.0
62 ; 1.1224077175372418E7 ; 1.2051500189901311E9 ; 5.855889081814097E8 ; 6.488786127280251E10 ; 0.0
63 ; 1.1240782546759358E7 ; 1.2052084284547927E9 ; 5.968129853567821E8 ; 6.609301129179264E10 ; 0.0
64 ; 1.1252979632477053E7 ; 1.2052668591390157E9 ; 6.080537679035414E8 ; 6.729821972024744E10 ; 0.0
65 ; 1.1269343577500543E7 ; 1.20532530564861E9 ; 6.193067475360185E8 ; 6.850348657938645E10 ; 0.0
66 ; 1.1290659131821178E7 ; 1.205383762867274E9 ; 6.305760911135191E8 ; 6.970881188503506E10 ; 0.0
67 ; 1.130347915197308E7 ; 1.2054422259348128E9 ; 6.418667502453402E8 ; 7.091419564790234E10 ; 0.0
68 ; 1.1322261333444107E7 ; 1.2055006902273445E9 ; 6.531702293973134E8 ; 7.211963787383716E10 ; 0.0
69 ; 1.1335550856222147E7 ; 1.2055591513392968E9 ; 6.644924907307575E8 ; 7.33251385640645E10 ; 0.0
70 ; 1.1345696816854881E7 ; 1.2056176050670063E9 ; 6.758280415869796E8 ; 7.45306977154038E10 ; 0.0
71 ; 1.136235122233802E7 ; 1.2056760473937619E9 ; 6.871737384038345E8 ; 7.57363153204708E10 ; 0.0
72 ; 1.1380588650165549E7 ; 1.2057344744761481E9 ; 6.985360896261725E8 ; 7.694199136786456E10 ; 0.0
73 ; 1.1397035324088225E7 ; 1.2057928826315632E9 ; 7.099166782763381E8 ; 7.814772584234071E10 ; 0.0
74 ; 1.1410450403346762E7 ; 1.2058512683267927E9 ; 7.213137136004263E8 ; 7.935351872497227E10 ; 0.0
75 ; 1.1424857175613377E7 ; 1.2059096281675463E9 ; 7.327241640037731E8 ; 8.055936999329907E10 ; 0.0
76 ; 1.1435580294812191E7 ; 1.205967958888855E9 ; 7.441490211793865E8 ; 8.176527962146661E10 ; 0.0
77 ; 1.1450918384550631E7 ; 1.2060262573462586E9 ; 7.555846014741987E8 ; 8.297124758035547E10 ; 0.0
78 ; 1.1455998561007235E7 ; 1.2060845205077045E9 ; 7.670355198587494E8 ; 8.417727383770172E10 ; 0.0
79 ; 1.1457470183140768E7 ; 1.2061427454460936E9 ; 7.784915184197567E8 ; 8.538335835820943E10 ; 0.0
80 ; 1.1451778848450005E7 ; 1.2062009293324153E9 ; 7.899489886028974E8 ; 8.658950110365552E10 ; 0.0
81 ; 1.1457625450898858E7 ; 1.20625906942942E9 ; 8.014007674513474E8 ; 8.779570203298793E10 ; 0.0
82 ; 1.1455958152097063E7 ; 1.2063171630857782E9 ; 8.128583929022462E8 ; 8.900196110241734E10 ; 0.0
83 ; 1.1444424006270071E7 ; 1.206375207730687E9 ; 8.243143510543433E8 ; 9.020827826550313E10 ; 0.0
84 ; 1.1455231154832039E7 ; 1.2064332008688834E9 ; 8.357587750606134E8 ; 9.141465347323381E10 ; 0.0
85 ; 1.1448907207001954E7 ; 1.2064911400760295E9 ; 8.472140062154454E8 ; 9.262108667410269E10 ; 0.0
86 ; 1.1451976111765886E7 ; 1.2065490229944408E9 ; 8.586629134224473E8 ; 9.382757781417873E10 ; 0.0
87 ; 1.1443932691322071E7 ; 1.2066068473291225E9 ; 8.701148895342132E8 ; 9.503412683717317E10 ; 0.0
88 ; 1.1439832329372644E7 ; 1.2066646108440967E9 ; 8.815588222255353E8 ; 9.624073368450229E10 ; 0.0
89 ; 1.1439153381929984E7 ; 1.2067223113589888E9 ; 8.929986545549079E8 ; 9.744739829534639E10 ; 0.0
90 ; 1.143317321279377E7 ; 1.206779946745859E9 ; 9.044378079368379E8 ; 9.865412060670538E10 ; 0.0
91 ; 1.1431434177873885E7 ; 1.2068375149262516E9 ; 9.158709811496317E8 ; 9.986090055345125E10 ; 0.0
92 ; 1.14264009543484E7 ; 1.2068950138684535E9 ; 9.273024153275056E8 ; 1.010677380683775E11 ; 0.0
93 ; 1.1421460945993502E7 ; 1.2069524415849366E9 ; 9.38728816281854E8 ; 1.0227463308224596E11 ; 0.0
94 ; 1.1423306677592557E7 ; 1.2070097961299765E9 ; 9.501502772278476E8 ; 1.0348158552383089E11 ; 0.0
95 ; 1.1412320721634813E7 ; 1.207067075597432E9 ; 9.615735839054401E8 ; 1.0468859531996086E11 ; 0.0
96 ; 1.1406489586436033E7 ; 1.2071242781186697E9 ; 9.72985904627075E8 ; 1.0589566239555829E11 ; 0.0
97 ; 1.140003101661834E7 ; 1.2071814018606286E9 ; 9.84392394213511E8 ; 1.0710278667367696E11 ; 0.0
98 ; 1.1398023939940507E7 ; 1.2072384450240095E9 ; 9.957924252301294E8 ; 1.0830996807553758E11 ; 0.0
99 ; 1.139103444949409E7 ; 1.2072954058415823E9 ; 1.0071904491700698E9 ; 1.0951720652056158E11 ; 0.0
100 ; 1.139086031774402E7 ; 1.2073522825766015E9 ; 1.0185814836195639E9 ; 1.1072450192640317E11 ; 0.0
101 ; 1.1373687709247783E7 ; 1.2074090735213223E9 ; 1.029972343937308E9 ; 1.1193185420897977E11 ; 0.0
102 ; 1.1371090252925027E7 ; 1.2074657769956124E9 ; 1.0413460316465558E9 ; 1.1313926328250108E11 ; 0.0
103 ; 1.1358638337366382E7 ; 1.207522391345646E9 ; 1.0527171218994808E9 ; 1.1434672905949669E11 ; 0.0
104 ; 1.1360977812016387E7 ; 1.2075789149426837E9 ; 1.0640757602368472E9 ; 1.1555425145084233E11 ; 0.0
105 ; 1.1347902670658218E7 ; 1.2076353461819234E9 ; 1.0754367380488636E9 ; 1.1676183036578502E11 ; 0.0
106 ; 1.1343813730602344E7 ; 1.2076916834814231E9 ; 1.0867846407195218E9 ; 1.1796946571196695E11 ; 0.0
107 ; 1.1335234298241181E7 ; 1.2077479252810893E9 ; 1.098128454450124E9 ; 1.1917715739544838E11 ; 0.0
108 ; 1.1323334259450043E7 ; 1.2078040700417233E9 ; 1.1094636887483652E9 ; 1.2038490532072946E11 ; 0.0
109 ; 1.1320983821063697E7 ; 1.2078601162441263E9 ; 1.1207870230078151E9 ; 1.2159270939077118E11 ; 0.0
110 ; 1.1308572645774301E7 ; 1.2079160623882575E9 ; 1.1321080068288789E9 ; 1.228005695070153E11 ; 0.0
111 ; 1.1303962878284E7 ; 1.20797190699244E9 ; 1.1434165794746532E9 ; 1.2400848556940356E11 ; 0.0
112 ; 1.1289563216298552E7 ; 1.2080276485926123E9 ; 1.1547205423529372E9 ; 1.2521645747639601E11 ; 0.0
113 ; 1.1276992170214057E7 ; 1.2080832857416258E9 ; 1.1660101055692358E9 ; 1.2642448512498862E11 ; 0.0
114 ; 1.1265823101668522E7 ; 1.208138817008579E9 ; 1.17728709773945E9 ; 1.2763256841073024E11 ; 0.0
115 ; 1.1258375441648182E7 ; 1.208194240978192E9 ; 1.1885529208411186E9 ; 1.2884070722773882E11 ; 0.0
116 ; 1.1237674873169225E7 ; 1.2082495562502148E9 ; 1.1998112962827668E9 ; 1.3004890146871701E11 ; 0.0
117 ; 1.1239550486588774E7 ; 1.208304761438869E9 ; 1.211048971155936E9 ; 1.3125715102496722E11 ; 0.0
118 ; 1.1217340566895973E7 ; 1.2083598551723204E9 ; 1.2222885216425247E9 ; 1.324654557864061E11 ; 0.0
119 ; 1.1206983658605888E7 ; 1.2084148360921824E9 ; 1.2335058622094207E9 ; 1.3367381564157841E11 ; 0.0
120 ; 1.1198809936169866E7 ; 1.208469702853043E9 ; 1.2447128458680265E9 ; 1.348822304776706E11 ; 0.0
121 ; 1.1180517066215012E7 ; 1.2085244541220212E9 ; 1.2559116558041964E9 ; 1.3609070018052364E11 ; 0.0
122 ; 1.1173982170573406E7 ; 1.208579088578345E9 ; 1.2670921728704114E9 ; 1.3729922463464566E11 ; 0.0
123 ; 1.115159361695048E7 ; 1.2086336049129543E9 ; 1.2782661550409849E9 ; 1.38507803723224E11 ; 0.0
124 ; 1.1138660016951095E7 ; 1.2086880018281224E9 ; 1.2894177486579354E9 ; 1.3971643732813696E11 ; 0.0
125 ; 1.1130371883395199E7 ; 1.2087422780370991E9 ; 1.3005564086748865E9 ; 1.409251253299651E11 ; 0.0
126 ; 1.111299416059722E7 ; 1.208796432263774E9 ; 1.3116867805582817E9 ; 1.421338676080022E11 ; 0.0
127 ; 1.1098861940150982E7 ; 1.2088504632423542E9 ; 1.322799774718879E9 ; 1.4334266404026596E11 ; 0.0
128 ; 1.1085812186074506E7 ; 1.2089043697170615E9 ; 1.33389863665903E9 ; 1.445515145035083E11 ; 0.0
129 ; 1.1068485998031763E7 ; 1.2089581504418454E9 ; 1.3449844488451045E9 ; 1.4576041887322537E11 ; 0.0
130 ; 1.104682702856192E7 ; 1.209011804180108E9 ; 1.3560529348431363E9 ; 1.469693770236672E11 ; 0.0
131 ; 1.1020294635813218E7 ; 1.209065329704448E9 ; 1.3670997618716981E9 ; 1.4817838882784732E11 ; 0.0
132 ; 1.0992353038988745E7 ; 1.209118725796413E9 ; 1.3781200565075114E9 ; 1.4938745415755176E11 ; 0.0
133 ; 1.0967913255754575E7 ; 1.2091719912462666E9 ; 1.3891124095465002E9 ; 1.5059657288334818E11 ; 0.0
134 ; 1.0939175003858164E7 ; 1.2092251248527684E9 ; 1.4000803228022547E9 ; 1.5180574487459445E11 ; 0.0
135 ; 1.0908321161556555E7 ; 1.209278125422964E9 ; 1.4110194978061128E9 ; 1.5301496999944724E11 ; 0.0
136 ; 1.0876233085925892E7 ; 1.209330991771984E9 ; 1.4219278189676692E9 ; 1.542242481248702E11 ; 0.0
137 ; 1.0840687605185669E7 ; 1.2093837227228563E9 ; 1.432804052053595E9 ; 1.5543357911664218E11 ; 0.0
138 ; 1.0814574854030693E7 ; 1.2094363171063259E9 ; 1.4436447396587808E9 ; 1.5664296283936505E11 ; 0.0
139 ; 1.078720151592939E7 ; 1.2094887737606835E9 ; 1.4544593145128114E9 ; 1.5785239915647137E11 ; 0.0
140 ; 1.0749390799173685E7 ; 1.2095410915316043E9 ; 1.465246516028741E9 ; 1.5906188793023206E11 ; 0.0
141 ; 1.0723563219645843E7 ; 1.2095932692719924E9 ; 1.4759959068279145E9 ; 1.6027142902176367E11 ; 0.0
142 ; 1.0693212241607655E7 ; 1.2096453058418355E9 ; 1.4867194700475602E9 ; 1.6148102229103568E11 ; 0.0
143 ; 1.0652170048806489E7 ; 1.2096972001080642E9 ; 1.497412682289168E9 ; 1.626906675968775E11 ; 0.0
144 ; 1.062133724713126E7 ; 1.2097489509444215E9 ; 1.5080648523379743E9 ; 1.6390036479698557E11 ; 0.0
145 ; 1.061075028834754E7 ; 1.2098005572313347E9 ; 1.5186861895851057E9 ; 1.6511011374793E11 ; 0.0
146 ; 1.0595841243941275E7 ; 1.209852017855797E9 ; 1.5292969398734531E9 ; 1.6631991430516132E11 ; 0.0
147 ; 1.057542227506192E7 ; 1.2099033317112532E9 ; 1.5398927811173944E9 ; 1.6752976632301712E11 ; 0.0
148 ; 1.056264561936608E7 ; 1.209954497697492E9 ; 1.5504682033924563E9 ; 1.6873966965472836E11 ; 0.0
149 ; 1.0551422895720704E7 ; 1.2100055147205424E9 ; 1.5610308490118225E9 ; 1.6994962415242584E11 ; 0.0
150 ; 1.053108539419198E7 ; 1.2100563816925762E9 ; 1.5715822719075432E9 ; 1.711596296671464E11 ; 0.0
151 ; 1.0516923998045253E7 ; 1.2101070975318146E9 ; 1.5821133573017352E9 ; 1.7236968604883896E11 ; 0.0
152 ; 1.0496950305158345E7 ; 1.210157661162441E9 ; 1.5926302812997804E9 ; 1.735797931463708E11 ; 0.0
153 ; 1.0484720831686135E7 ; 1.2102080715145144E9 ; 1.6031272316049387E9 ; 1.7478995080753323E11 ; 0.0
154 ; 1.0468391450042913E7 ; 1.210258327523892E9 ; 1.6136119524366248E9 ; 1.7600015887904776E11 ; 0.0
155 ; 1.0457451628251873E7 ; 1.2103084281321511E9 ; 1.6240803438866677E9 ; 1.7721041720657166E11 ; 0.0
156 ; 1.0438614827064041E7 ; 1.2103583722865183E9 ; 1.6345377955149195E9 ; 1.784207256347038E11 ; 0.0
157 ; 1.0415245828022366E7 ; 1.2104081589398003E9 ; 1.6449764103419836E9 ; 1.7963108400699033E11 ; 0.0
158 ; 1.0404311959396685E7 ; 1.2104577870503178E9 ; 1.655391656170006E9 ; 1.808414921659301E11 ; 0.0
159 ; 1.0387067896377973E7 ; 1.210507255581844E9 ; 1.6657959681294026E9 ; 1.8205194995298044E11 ; 0.0
160 ; 1.037080247084737E7 ; 1.2105565635035465E9 ; 1.6761830360257807E9 ; 1.832624572085623E11 ; 0.0
161 ; 1.035282649607817E7 ; 1.2106057097899296E9 ; 1.686553838496628E9 ; 1.8447301377206583E11 ; 0.0
162 ; 1.0337405754524963E7 ; 1.210654693420782E9 ; 1.6969066649927063E9 ; 1.8568361948185574E11 ; 0.0
163 ; 1.0321702515807644E7 ; 1.2107035133811269E9 ; 1.7072440707472312E9 ; 1.8689427417527652E11 ; 0.0
164 ; 1.0310685584094431E7 ; 1.2107521686611722E9 ; 1.7175657732630389E9 ; 1.8810497768865765E11 ; 0.0
165 ; 1.0288408223716248E7 ; 1.2108006582562666E9 ; 1.7278764588471334E9 ; 1.8931572985731882E11 ; 0.0
166 ; 1.0270707262964863E7 ; 1.2108489811668563E9 ; 1.7381648670708497E9 ; 1.9052653051557507E11 ; 0.0
167 ; 1.0252324817088198E7 ; 1.210897136398443E9 ; 1.7484355743338146E9 ; 1.9173737949674194E11 ; 0.0
168 ; 1.024223159821954E7 ; 1.2109451229615455E9 ; 1.7586878991509027E9 ; 1.9294827663314038E11 ; 0.0
169 ; 1.0223780607305072E7 ; 1.2109929398716643E9 ; 1.7689301307491224E9 ; 1.9415922175610193E11 ; 0.0
170 ; 1.0201585266260616E7 ; 1.2110405861492443E9 ; 1.7791539113564274E9 ; 1.953702146959736E11 ; 0.0
171 ; 1.0194361734749643E7 ; 1.2110880608196435E9 ; 1.789355496622688E9 ; 1.9658125528212283E11 ; 0.0
172 ; 1.0173725005087055E7 ; 1.2111353629131017E9 ; 1.7995498583574376E9 ; 1.9779234334294247E11 ; 0.0
173 ; 1.0155373848062579E7 ; 1.21118249146471E9 ; 1.8097235833625247E9 ; 1.990034787058556E11 ; 0.0
174 ; 1.0151375339105368E7 ; 1.2112294455143843E9 ; 1.8198789572105873E9 ; 2.002146611973203E11 ; 0.0
175 ; 1.0133180728414474E7 ; 1.211276224106838E9 ; 1.8300303325496926E9 ; 2.014258906428347E11 ; 0.0
176 ; 1.0114441176025439E7 ; 1.211322826291557E9 ; 1.8401635132781072E9 ; 2.0263716686694153E11 ; 0.0
177 ; 1.0109946829932513E7 ; 1.211369251122777E9 ; 1.8502779544541326E9 ; 2.038484896932331E11 ; 0.0
178 ; 1.0093072353468318E7 ; 1.211415497659461E9 ; 1.860387901284065E9 ; 2.0505985894435587E11 ; 0.0
179 ; 1.0081291165696215E7 ; 1.211461564965279E9 ; 1.8704809736375334E9 ; 2.0627127444201532E11 ; 0.0
180 ; 1.0070234574881548E7 ; 1.2115074521085877E9 ; 1.8805622648032296E9 ; 2.074827360069806E11 ; 0.0
181 ; 1.0059628261598859E7 ; 1.2115531581624124E9 ; 1.8906324993781111E9 ; 2.0869424345908917E11 ; 0.0
182 ; 1.0048795759655882E7 ; 1.2115986822044308E9 ; 1.90069212763971E9 ; 2.099057966172516E11 ; 0.0
183 ; 1.0032608414868709E7 ; 1.2116440233169556E9 ; 1.910740923399366E9 ; 2.1111739529945602E11 ; 0.0
184 ; 1.0029135755903106E7 ; 1.2116891805869203E9 ; 1.9207735318142345E9 ; 2.1232903932277298E11 ; 0.0
185 ; 1.0011289233919304E7 ; 1.2117341531058648E9 ; 1.9308026675701375E9 ; 2.135407285033599E11 ; 0.0
186 ; 9999763.691104958 ; 1.2117789399699223E9 ; 1.940813956804057E9 ; 2.1475246265646576E11 ; 0.0
187 ; 9988977.706557373 ; 1.211823540279807E9 ; 1.9508137204951618E9 ; 2.1596424159643567E11 ; 0.0
188 ; 9978739.950096825 ; 1.2118679531408043E9 ; 1.960802698201719E9 ; 2.1717606513671548E11 ; 0.0
189 ; 9969961.568692913 ; 1.2119121776627579E9 ; 1.970781438151816E9 ; 2.183879330898563E11 ; 0.0
190 ; 9948732.577788299 ; 1.211956212960062E9 ; 1.9807513997205088E9 ; 2.1959984526751904E11 ; 0.0
191 ; 9942795.212625455 ; 1.212000058151652E9 ; 1.9907001322982972E9 ; 2.208118014804791E11 ; 0.0
192 ; 9932260.30637107 ; 1.2120437123609965E9 ; 2.0006429275109227E9 ; 2.2202380153863074E11 ; 0.0
193 ; 9925258.898273028 ; 1.2120871747160892E9 ; 2.0105751878172936E9 ; 2.2323584525099173E11 ; 0.0
194 ; 9907880.426588248 ; 1.2121304443494437E9 ; 2.0205004467155666E9 ; 2.2444793242570782E11 ; 0.0
195 ; 9893215.69557354 ; 1.2121735203980856E9 ; 2.030408327142155E9 ; 2.2566006287005728E11 ; 0.0
196 ; 9885673.721026763 ; 1.212216402003549E9 ; 2.0403015428377285E9 ; 2.2687223639045535E11 ; 0.0
