CSV File for the Network on Day 268
1 - Minute m 
2 - Power Consumed at minute m 
3 - Power Produced at minute m 
4 - Energy Consumed since the beginning of the day 
5 - Energy Produced since the beginning of the day 
6 - Energy Lost since the beginning of the day 
 
0 ; 1.6284857896323327E7 ; 6.354030063193177E8 ; 0.0 ; 0.0 ; 0.0
1 ; 1.6306346857904248E7 ; 6.363139392531323E8 ; 1.6284857896323327E7 ; 6.354030063193177E8 ; 0.0
2 ; 1.6341308347979762E7 ; 6.390782559266354E8 ; 3.2591204754227575E7 ; 1.2717169455724502E9 ; 0.0
3 ; 1.6376593278008461E7 ; 6.436959714463406E8 ; 4.893251310220733E7 ; 1.9107952014990854E9 ; 0.0
4 ; 1.6423086214687616E7 ; 6.501670993347733E8 ; 6.5309106380215794E7 ; 2.554491172945426E9 ; 0.0
5 ; 1.6476677011302313E7 ; 6.584916514608419E8 ; 8.173219259490341E7 ; 3.204658272280199E9 ; 0.0
6 ; 1.6554959972687736E7 ; 6.6866963797764E8 ; 9.820886960620572E7 ; 3.863149923741041E9 ; 0.0
7 ; 1.6671740524106057E7 ; 6.807010672684357E8 ; 1.1476382957889345E8 ; 4.531819561718681E9 ; 0.0
8 ; 1.6841633333050553E7 ; 6.945859459015127E8 ; 1.3143557010299951E8 ; 5.212520628987117E9 ; 0.0
9 ; 1.711009934430092E7 ; 7.103242785944325E8 ; 1.4827720343605006E8 ; 5.90710657488863E9 ; 0.0
10 ; 1.753407365108638E7 ; 7.27916068188172E8 ; 1.6538730278035098E8 ; 6.617430853483063E9 ; 0.0
11 ; 1.821374866133197E7 ; 7.473613156314697E8 ; 1.8292137643143737E8 ; 7.345346921671235E9 ; 0.0
12 ; 1.9304909203805488E7 ; 7.686600199755868E8 ; 2.0113512509276935E8 ; 8.092708237302705E9 ; 0.0
13 ; 2.035647487587689E7 ; 7.918121783795466E8 ; 2.2044003429657483E8 ; 8.861368257278292E9 ; 0.0
14 ; 2.04701113044062E7 ; 8.168177861257882E8 ; 2.4079650917245173E8 ; 9.653180435657839E9 ; 0.0
15 ; 2.051505628093768E7 ; 8.436768366460271E8 ; 2.6126662047685793E8 ; 1.0469998221783627E10 ; 0.0
16 ; 2.0546295325736247E7 ; 8.723893215569955E8 ; 2.8178167675779563E8 ; 1.1313675058429653E10 ; 0.0
17 ; 2.0589943010873627E7 ; 9.029552307055998E8 ; 3.0232797208353186E8 ; 1.2186064379986649E10 ; 0.0
18 ; 2.0633750893830225E7 ; 9.353745522229316E8 ; 3.229179150944055E8 ; 1.308901961069225E10 ; 0.0
19 ; 2.066622739822742E7 ; 9.696472725864656E8 ; 3.435516659882357E8 ; 1.402439416291518E10 ; 0.0
20 ; 2.070567937633492E7 ; 1.0057733766896878E9 ; 3.642178933864631E8 ; 1.4994041435501646E10 ; 0.0
21 ; 2.0743717626617737E7 ; 1.0437528479183402E9 ; 3.84923572762798E8 ; 1.5999814812191334E10 ; 0.0
22 ; 2.0786911344795663E7 ; 1.0835856682324018E9 ; 4.0566729038941574E8 ; 1.7043567660109674E10 ; 0.0
23 ; 2.081922175988058E7 ; 1.1252718182529054E9 ; 4.264542017342114E8 ; 1.8127153328342075E10 ; 0.0
24 ; 2.0869964179449297E7 ; 1.1688112773526587E9 ; 4.47273423494092E8 ; 1.9252425146594982E10 ; 0.0
25 ; 2.09040353878375E7 ; 1.2063322691390495E9 ; 4.681433876735413E8 ; 2.042123642394764E10 ; 0.0
26 ; 2.0939939552526243E7 ; 1.2063560577711902E9 ; 4.8904742306137884E8 ; 2.162756869308669E10 ; 0.0
27 ; 2.097764244431057E7 ; 1.2063812352062938E9 ; 5.099873626139051E8 ; 2.283392475085788E10 ; 0.0
28 ; 2.1020024044169392E7 ; 1.2064077767776005E9 ; 5.309650050582156E8 ; 2.4040305986064175E10 ; 0.0
29 ; 2.1051511599342473E7 ; 1.2064356570506911E9 ; 5.51985029102385E8 ; 2.5246713762841774E10 ; 0.0
30 ; 2.110166748283615E7 ; 1.2064648499191394E9 ; 5.730365407017275E8 ; 2.6453149419892464E10 ; 0.0
31 ; 2.113728326815344E7 ; 1.2064953286983116E9 ; 5.941382081845636E8 ; 2.7659614269811604E10 ; 0.0
32 ; 2.1164672423970602E7 ; 1.2065270662167149E9 ; 6.152754914527171E8 ; 2.8866109598509914E10 ; 0.0
33 ; 2.1199234112473622E7 ; 1.2065600349043722E9 ; 6.364401638766876E8 ; 3.007263666472663E10 ; 0.0
34 ; 2.1226613049618214E7 ; 1.2065942068777728E9 ; 6.576393979891613E8 ; 3.1279196699631004E10 ; 0.0
35 ; 2.1264845568013564E7 ; 1.206629554021032E9 ; 6.788660110387795E8 ; 3.2485790906508778E10 ; 0.0
36 ; 2.1292754512140512E7 ; 1.2066660480629504E9 ; 7.00130856606793E8 ; 3.3692420460529808E10 ; 0.0
37 ; 2.1317961587611757E7 ; 1.2067036606497445E9 ; 7.214236111189336E8 ; 3.489908650859276E10 ; 0.0
38 ; 2.135182496646631E7 ; 1.2067423634132862E9 ; 7.427415727065454E8 ; 3.61057901692425E10 ; 0.0
39 ; 2.1373411605958518E7 ; 1.2067821280347383E9 ; 7.640933976730117E8 ; 3.7312532532655785E10 ; 0.0
40 ; 2.1398366128481984E7 ; 1.2068229263035426E9 ; 7.854668092789701E8 ; 3.851931466069052E10 ; 0.0
41 ; 2.1421198453602523E7 ; 1.206864730171757E9 ; 8.068651754074521E8 ; 3.9726137586994064E10 ; 0.0
42 ; 2.144575184675249E7 ; 1.2069075118037906E9 ; 8.282863738610547E8 ; 4.0933002317165825E10 ; 0.0
43 ; 2.1463805313239668E7 ; 1.2069512436216178E9 ; 8.497321257078072E8 ; 4.213990982896961E10 ; 0.0
44 ; 2.147772582539156E7 ; 1.2069958983455873E9 ; 8.711959310210469E8 ; 4.334686107259123E10 ; 0.0
45 ; 2.1501874109106936E7 ; 1.2070414490309756E9 ; 8.926736568464384E8 ; 4.455385697093682E10 ; 0.0
46 ; 2.1508296018870275E7 ; 1.2070878691004472E9 ; 9.141755309555453E8 ; 4.57608984199678E10 ; 0.0
47 ; 2.152560525643442E7 ; 1.20713513237261E9 ; 9.356838269744155E8 ; 4.6967986289068245E10 ; 0.0
48 ; 2.153637837224319E7 ; 1.2071832130868626E9 ; 9.5720943223085E8 ; 4.817512142144086E10 ; 0.0
49 ; 2.15401433363411E7 ; 1.2072320859247417E9 ; 9.787458106030931E8 ; 4.938230463452772E10 ; 0.0
50 ; 2.1546342275501873E7 ; 1.207281726027988E9 ; 1.0002859539394343E9 ; 5.058953672045246E10 ; 0.0
51 ; 2.1553275759500068E7 ; 1.207332109013538E9 ; 1.0218322962149361E9 ; 5.1796818446480446E10 ; 0.0
52 ; 2.1560517887399778E7 ; 1.2073832109856672E9 ; 1.0433855719744362E9 ; 5.300415055549398E10 ; 0.0
53 ; 2.1562684205127284E7 ; 1.207435008545497E9 ; 1.064946089861836E9 ; 5.4211533766479645E10 ; 0.0
54 ; 2.1569459501965594E7 ; 1.2074874787980704E9 ; 1.0865087740669632E9 ; 5.541896877502514E10 ; 0.0
55 ; 2.1570742068006605E7 ; 1.2075405993572063E9 ; 1.1080782335689287E9 ; 5.662645625382321E10 ; 0.0
56 ; 2.1572820699716885E7 ; 1.2075943483483286E9 ; 1.1296489756369352E9 ; 5.783399685318042E10 ; 0.0
57 ; 2.157443123728196E7 ; 1.2076487044094558E9 ; 1.151221796336652E9 ; 5.904159120152875E10 ; 0.0
58 ; 2.1585640050954398E7 ; 1.2077036466905332E9 ; 1.172796227573934E9 ; 6.02492399059382E10 ; 0.0
59 ; 2.1575056342105467E7 ; 1.207759154851279E9 ; 1.1943818676248884E9 ; 6.145694355262874E10 ; 0.0
60 ; 2.158699681115066E7 ; 1.2078152090577009E9 ; 1.2159569239669938E9 ; 6.266470270748002E10 ; 0.0
61 ; 2.1588494570453126E7 ; 1.2078717899774375E9 ; 1.2375439207781444E9 ; 6.387251791653772E10 ; 0.0
62 ; 2.158152738682258E7 ; 1.2079288787740643E9 ; 1.2591324153485975E9 ; 6.508038970651516E10 ; 0.0
63 ; 2.158990796739191E7 ; 1.2079864571004922E9 ; 1.2807139427354202E9 ; 6.628831858528922E10 ; 0.0
64 ; 2.1590567461838376E7 ; 1.2080445070915842E9 ; 1.3023038507028122E9 ; 6.749630504238972E10 ; 0.0
65 ; 2.1588031704497296E7 ; 1.2081030113560941E9 ; 1.3238944181646507E9 ; 6.87043495494813E10 ; 0.0
66 ; 2.159335428026689E7 ; 1.2081619529680414E9 ; 1.345482449869148E9 ; 6.991245256083739E10 ; 0.0
67 ; 2.158756443431078E7 ; 1.2082213154576015E9 ; 1.367075804149415E9 ; 7.112061451380544E10 ; 0.0
68 ; 2.1590077613068245E7 ; 1.2082810828016107E9 ; 1.3886633685837257E9 ; 7.232883582926303E10 ; 0.0
69 ; 2.1588710221831746E7 ; 1.2083412394137516E9 ; 1.410253446196794E9 ; 7.353711691206464E10 ; 0.0
70 ; 2.1586600452890553E7 ; 1.2084017701344981E9 ; 1.4318421564186258E9 ; 7.47454581514784E10 ; 0.0
71 ; 2.1588246372172043E7 ; 1.208462660220879E9 ; 1.4534287568715165E9 ; 7.595385992161288E10 ; 0.0
72 ; 2.158655992111736E7 ; 1.2085238953361158E9 ; 1.4750170032436886E9 ; 7.716232258183377E10 ; 0.0
73 ; 2.1578741980543092E7 ; 1.2085854615391889E9 ; 1.496603563164806E9 ; 7.837084647716989E10 ; 0.0
74 ; 2.157413537313368E7 ; 1.2086473452743762E9 ; 1.518182305145349E9 ; 7.957943193870908E10 ; 0.0
75 ; 2.1569313465528876E7 ; 1.2087095333608012E9 ; 1.5397564405184827E9 ; 8.078807928398346E10 ; 0.0
76 ; 2.1576632735624164E7 ; 1.2087720129820323E9 ; 1.5613257539840117E9 ; 8.199678881734425E10 ; 0.0
77 ; 2.1567800479551636E7 ; 1.2088347716757562E9 ; 1.5829023867196357E9 ; 8.320556083032628E10 ; 0.0
78 ; 2.1549290488229968E7 ; 1.2088977973235605E9 ; 1.6044701871991873E9 ; 8.441439560200203E10 ; 0.0
79 ; 2.153740440555496E7 ; 1.208961078140842E9 ; 1.6260194776874173E9 ; 8.562329339932559E10 ; 0.0
80 ; 2.1513968937879056E7 ; 1.209024602666865E9 ; 1.6475568820929723E9 ; 8.683225447746643E10 ; 0.0
81 ; 2.1496868316811733E7 ; 1.2090883597549865E9 ; 1.6690708510308514E9 ; 8.80412790801333E10 ; 0.0
82 ; 2.1482770264501426E7 ; 1.2091523385630593E9 ; 1.6905677193476632E9 ; 8.925036743988829E10 ; 0.0
83 ; 2.1463536204750948E7 ; 1.2092165285440285E9 ; 1.7120504896121645E9 ; 9.045951977845135E10 ; 0.0
84 ; 2.144454480386984E7 ; 1.2092809194367301E9 ; 1.7335140258169155E9 ; 9.166873630699538E10 ; 0.0
85 ; 2.1428252353792503E7 ; 1.2093455012568984E9 ; 1.7549585706207852E9 ; 9.287801722643211E10 ; 0.0
86 ; 2.141562054470537E7 ; 1.2094102642883902E9 ; 1.7763868229745777E9 ; 9.408736272768901E10 ; 0.0
87 ; 2.138875091414219E7 ; 1.2094751990746267E9 ; 1.797802443519283E9 ; 9.52967729919774E10 ; 0.0
88 ; 2.136985050883191E7 ; 1.2095402964102619E9 ; 1.8191911944334252E9 ; 9.650624819105203E10 ; 0.0
89 ; 2.1352810454807244E7 ; 1.2096055473330731E9 ; 1.8405610449422572E9 ; 9.77157884874623E10 ; 0.0
90 ; 2.1334135957199678E7 ; 1.2096709431160772E9 ; 1.8619138553970644E9 ; 9.892539403479536E10 ; 0.0
91 ; 2.1309437086122174E7 ; 1.2097364752598748E9 ; 1.883247991354264E9 ; 1.0013506497791144E11 ; 0.0
92 ; 2.1289411370617896E7 ; 1.2098021354852152E9 ; 1.9045574284403863E9 ; 1.0134480145317131E11 ; 0.0
93 ; 2.1267475494944032E7 ; 1.209867915725788E9 ; 1.9258468398110042E9 ; 1.0255460358865652E11 ; 0.0
94 ; 2.1241756366701804E7 ; 1.2099338081212308E9 ; 1.9471143153059483E9 ; 1.0376447150438231E11 ; 0.0
95 ; 2.1218323160608314E7 ; 1.2099998050103562E9 ; 1.96835607167265E9 ; 1.0497440531250354E11 ; 0.0
96 ; 2.1199091494498692E7 ; 1.210065898924594E9 ; 1.9895743948332584E9 ; 1.061844051175139E11 ; 0.0
97 ; 2.117686270222872E7 ; 1.2101320825816398E9 ; 2.0107734863277571E9 ; 1.0739447101643849E11 ; 0.0
98 ; 2.115403770207951E7 ; 1.2101983488793135E9 ; 2.031950349029986E9 ; 1.0860460309902013E11 ; 0.0
99 ; 2.1128112375238307E7 ; 1.2102646908896174E9 ; 2.0531043867320654E9 ; 1.0981480144789944E11 ; 0.0
100 ; 2.1111779089994185E7 ; 1.210331101852992E9 ; 2.0742324991073039E9 ; 1.1102506613878906E11 ; 0.0
101 ; 2.1083228352426585E7 ; 1.210397575172763E9 ; 2.095344278197298E9 ; 1.1223539724064206E11 ; 0.0
102 ; 2.1054017891566854E7 ; 1.2104641044097776E9 ; 2.1164275065497246E9 ; 1.1344579481581482E11 ; 0.0
103 ; 2.1031483771667294E7 ; 1.210530683277224E9 ; 2.1374815244412913E9 ; 1.146562589202246E11 ; 0.0
104 ; 2.1011172410090983E7 ; 1.210597305635624E9 ; 2.158513008212959E9 ; 1.1586678960350182E11 ; 0.0
105 ; 2.0984675335911624E7 ; 1.2106639654880056E9 ; 2.1795241806230497E9 ; 1.1707738690913744E11 ; 0.0
106 ; 2.0956499519714314E7 ; 1.2107306569752357E9 ; 2.2005088559589615E9 ; 1.1828805087462544E11 ; 0.0
107 ; 2.0932778265531123E7 ; 1.2107973743715215E9 ; 2.221465355478676E9 ; 1.1949878153160068E11 ; 0.0
108 ; 2.090403129237046E7 ; 1.2108641120800648E9 ; 2.242398133744207E9 ; 1.207095789059722E11 ; 0.0
109 ; 2.0882421900495213E7 ; 1.2109308646288726E9 ; 2.263302165036577E9 ; 1.2192044301805226E11 ; 0.0
110 ; 2.0856095060992688E7 ; 1.2109976266667142E9 ; 2.2841845869370723E9 ; 1.2313137388268114E11 ; 0.0
111 ; 2.0828305560018834E7 ; 1.2110643929592202E9 ; 2.305040681998065E9 ; 1.2434237150934785E11 ; 0.0
112 ; 2.080687679423991E7 ; 1.2111311583851218E9 ; 2.325868987558084E9 ; 1.2555343590230707E11 ; 0.0
113 ; 2.077016722139564E7 ; 1.2111979179326236E9 ; 2.346675864352324E9 ; 1.2676456706069218E11 ; 0.0
114 ; 2.074373584321757E7 ; 1.2112646666959043E9 ; 2.3674460315737195E9 ; 1.279757649786248E11 ; 0.0
115 ; 2.071103506531639E7 ; 1.2113313998717432E9 ; 2.388189767416937E9 ; 1.2918702964532071E11 ; 0.0
116 ; 2.0685331001696594E7 ; 1.2113981127562685E9 ; 2.408900802482253E9 ; 1.3039836104519246E11 ; 0.0
117 ; 2.0652707356086314E7 ; 1.2114648007418184E9 ; 2.4295861334839497E9 ; 1.3160975915794873E11 ; 0.0
118 ; 2.0625187253542103E7 ; 1.211531459313919E9 ; 2.450238840840036E9 ; 1.3282122395869055E11 ; 0.0
119 ; 2.0594381918091923E7 ; 1.2115980840483677E9 ; 2.470864028093578E9 ; 1.3403275541800447E11 ; 0.0
120 ; 2.0569188725769036E7 ; 1.2116646706084204E9 ; 2.4914584100116696E9 ; 1.3524435350205284E11 ; 0.0
121 ; 2.053007461221392E7 ; 1.211731214742083E9 ; 2.5120275987374387E9 ; 1.3645601817266125E11 ; 0.0
122 ; 2.0507269123741727E7 ; 1.2117977122794952E9 ; 2.532557673349653E9 ; 1.3766774938740335E11 ; 0.0
123 ; 2.0464063704623062E7 ; 1.2118641591304123E9 ; 2.5530649424733944E9 ; 1.3887954709968286E11 ; 0.0
124 ; 2.0446176511822455E7 ; 1.2119305512817748E9 ; 2.5735290061780176E9 ; 1.4009141125881326E11 ; 0.0
125 ; 2.0408927390991304E7 ; 1.2119968847953644E9 ; 2.59397518268984E9 ; 1.4130334181009503E11 ; 0.0
126 ; 2.0379485722385496E7 ; 1.2120631558055468E9 ; 2.614384110080831E9 ; 1.4251533869489038E11 ; 0.0
127 ; 2.0346512550034042E7 ; 1.2121293605170908E9 ; 2.6347635958032165E9 ; 1.4372740185069592E11 ; 0.0
128 ; 2.0317020149954118E7 ; 1.2121954952030692E9 ; 2.6551101083532505E9 ; 1.44939531211213E11 ; 0.0
129 ; 2.028546816500459E7 ; 1.2122615562028317E9 ; 2.675427128503205E9 ; 1.4615172670641608E11 ; 0.0
130 ; 2.0235935892684422E7 ; 1.2123275399200523E9 ; 2.6957125966682096E9 ; 1.473639882626189E11 ; 0.0
131 ; 2.018890858016409E7 ; 1.2123934428208418E9 ; 2.715948532560894E9 ; 1.4857631580253894E11 ; 0.0
132 ; 2.0143300566991888E7 ; 1.212459261431933E9 ; 2.736137441141058E9 ; 1.4978870924535977E11 ; 0.0
133 ; 2.0096324404350445E7 ; 1.212524992338926E9 ; 2.75628074170805E9 ; 1.5100116850679172E11 ; 0.0
134 ; 2.0044884066103198E7 ; 1.212590632184597E9 ; 2.7763770661124E9 ; 1.5221369349913065E11 ; 0.0
135 ; 1.9995589522684686E7 ; 1.2126561776672661E9 ; 2.796421950178503E9 ; 1.5342628413131525E11 ; 0.0
136 ; 1.9951021440093532E7 ; 1.2127216255392232E9 ; 2.8164175397011876E9 ; 1.546389403089825E11 ; 0.0
137 ; 1.990133056135179E7 ; 1.2127869726052094E9 ; 2.836368561141281E9 ; 1.5585166193452173E11 ; 0.0
138 ; 1.9859512125991542E7 ; 1.2128522157209501E9 ; 2.856269891702633E9 ; 1.5706444890712695E11 ; 0.0
139 ; 1.9806515538967863E7 ; 1.2129173517917416E9 ; 2.8761294038286242E9 ; 1.582773011228479E11 ; 0.0
140 ; 1.9755482399996165E7 ; 1.2129823777710857E9 ; 2.8959359193675923E9 ; 1.5949021847463965E11 ; 0.0
141 ; 1.97075490737557E7 ; 1.213047290659372E9 ; 2.9156914017675886E9 ; 1.6070320085241074E11 ; 0.0
142 ; 1.9654183394802816E7 ; 1.213112087502606E9 ; 2.9353989508413444E9 ; 1.619162481430701E11 ; 0.0
143 ; 1.9602024259287614E7 ; 1.2131767653911812E9 ; 2.9550531342361474E9 ; 1.631293602305727E11 ; 0.0
144 ; 1.9553878281948853E7 ; 1.213241321458695E9 ; 2.974655158495435E9 ; 1.6434253699596387E11 ; 0.0
145 ; 1.9523102044937167E7 ; 1.213305752880803E9 ; 2.9942090367773843E9 ; 1.6555577831742258E11 ; 0.0
146 ; 1.9488782389042858E7 ; 1.2133700568741155E9 ; 3.0137321388223214E9 ; 1.6676908407030338E11 ; 0.0
147 ; 1.944657558840124E7 ; 1.213434230695128E9 ; 3.0332209212113643E9 ; 1.679824541271775E11 ; 0.0
148 ; 1.9417652261411767E7 ; 1.213498271639194E9 ; 3.0526674967997656E9 ; 1.6919588835787262E11 ; 0.0
149 ; 1.9383903790460996E7 ; 1.2135621770395272E9 ; 3.0720851490611773E9 ; 1.704093866295118E11 ; 0.0
150 ; 1.9343716731087442E7 ; 1.2136259442662413E9 ; 3.0914690528516383E9 ; 1.7162294880655133E11 ; 0.0
151 ; 1.931816386918978E7 ; 1.2136895707254212E9 ; 3.1108127695827255E9 ; 1.7283657475081757E11 ; 0.0
152 ; 1.927952406685569E7 ; 1.2137530538582253E9 ; 3.1301309334519153E9 ; 1.74050264321543E11 ; 0.0
153 ; 1.9242715879478574E7 ; 1.2138163911400192E9 ; 3.149410457518771E9 ; 1.752640173754012E11 ; 0.0
154 ; 1.9203747448693372E7 ; 1.2138795800795374E9 ; 3.1686531733982496E9 ; 1.7647783376654123E11 ; 0.0
155 ; 1.9180379569865234E7 ; 1.2139426182180746E9 ; 3.187856920846943E9 ; 1.7769171334662076E11 ; 0.0
156 ; 1.9140442104409274E7 ; 1.2140055031287022E9 ; 3.207037300416808E9 ; 1.7890565596483884E11 ; 0.0
157 ; 1.910467394840545E7 ; 1.2140682324155135E9 ; 3.2261777425212173E9 ; 1.8011966146796753E11 ; 0.0
158 ; 1.9063514772400815E7 ; 1.2141308037128913E9 ; 3.2452824164696226E9 ; 1.8133372970038306E11 ; 0.0
159 ; 1.9033230977060348E7 ; 1.214193214684803E9 ; 3.2643459312420235E9 ; 1.8254786050409595E11 ; 0.0
160 ; 1.900119786526707E7 ; 1.2142554630241148E9 ; 3.283379162219084E9 ; 1.8376205371878076E11 ; 0.0
161 ; 1.89597763413651E7 ; 1.2143175464519343E9 ; 3.302380360084351E9 ; 1.8497630918180487E11 ; 0.0
162 ; 1.8930037587268442E7 ; 1.2143794627169683E9 ; 3.3213401364257164E9 ; 1.861906267282568E11 ; 0.0
163 ; 1.8885957727618426E7 ; 1.2144412095949082E9 ; 3.3402701740129848E9 ; 1.874050061909738E11 ; 0.0
164 ; 1.8855375118774883E7 ; 1.2145027848878298E9 ; 3.359156131740603E9 ; 1.886194474005687E11 ; 0.0
165 ; 1.881841961490435E7 ; 1.2145641864236171E9 ; 3.378011506859378E9 ; 1.898339501854565E11 ; 0.0
166 ; 1.8787386458807435E7 ; 1.2146254120554025E9 ; 3.3968299264742823E9 ; 1.9104851437188013E11 ; 0.0
167 ; 1.874171148879114E7 ; 1.214686459661026E9 ; 3.4156173129330897E9 ; 1.9226313978393552E11 ; 0.0
168 ; 1.871220648080098E7 ; 1.2147473271425118E9 ; 3.4343590244218807E9 ; 1.9347782624359656E11 ; 0.0
169 ; 1.867096727112114E7 ; 1.214808012425562E9 ; 3.453071230902682E9 ; 1.9469257357073907E11 ; 0.0
170 ; 1.8635215900038995E7 ; 1.2148685134590664E9 ; 3.471742198173803E9 ; 1.9590738158316464E11 ; 0.0
171 ; 1.859782644167693E7 ; 1.2149288282146282E9 ; 3.490377414073842E9 ; 1.9712225009662372E11 ; 0.0
172 ; 1.8569535114520226E7 ; 1.2149889546861062E9 ; 3.508975240515519E9 ; 1.9833717892483835E11 ; 0.0
173 ; 1.853276874022148E7 ; 1.2150488908891678E9 ; 3.527544775630039E9 ; 1.9955216787952444E11 ; 0.0
174 ; 1.8494735884839073E7 ; 1.2151086348608623E9 ; 3.5460775443702607E9 ; 2.007672167704136E11 ; 0.0
175 ; 1.8475247134657152E7 ; 1.2151681846592011E9 ; 3.5645722802551E9 ; 2.0198232540527448E11 ; 0.0
176 ; 1.844740866243418E7 ; 1.215227538362758E9 ; 3.583047527389757E9 ; 2.031974935899337E11 ; 0.0
177 ; 1.8416707042774536E7 ; 1.2152866940702753E9 ; 3.6014949360521913E9 ; 2.0441272112829645E11 ; 0.0
178 ; 1.8384547488378532E7 ; 1.2153456499002888E9 ; 3.619911643094966E9 ; 2.0562800782236673E11 ; 0.0
179 ; 1.8355445366614964E7 ; 1.2154044039907603E9 ; 3.6382961905833445E9 ; 2.0684335347226703E11 ; 0.0
180 ; 1.83244545870553E7 ; 1.215462954498723E9 ; 3.6566516359499593E9 ; 2.0805875787625778E11 ; 0.0
181 ; 1.82995507526468E7 ; 1.2155212995999384E9 ; 3.6749760905370145E9 ; 2.092742208307565E11 ; 0.0
182 ; 1.827038326713075E7 ; 1.2155794374885638E9 ; 3.6932756412896614E9 ; 2.1048974213035645E11 ; 0.0
183 ; 1.823965727273043E7 ; 1.2156373663768296E9 ; 3.7115460245567923E9 ; 2.11705321567845E11 ; 0.0
184 ; 1.8215746626623336E7 ; 1.2156950844947276E9 ; 3.7297856818295226E9 ; 2.1292095893422183E11 ; 0.0
185 ; 1.8186174900504623E7 ; 1.2157525900897083E9 ; 3.748001428456146E9 ; 2.1413665401871655E11 ; 0.0
186 ; 1.8154362413828265E7 ; 1.2158098814263878E9 ; 3.7661876033566504E9 ; 2.1535240660880627E11 ; 0.0
187 ; 1.8120934874738403E7 ; 1.2158669567862642E9 ; 3.7843419657704787E9 ; 2.1656821649023267E11 ; 0.0
188 ; 1.8098172098127868E7 ; 1.215923814467441E9 ; 3.802462900645217E9 ; 2.1778408344701892E11 ; 0.0
189 ; 1.80650821458629E7 ; 1.2159804527843626E9 ; 3.820561072743345E9 ; 2.1900000726148636E11 ; 0.0
190 ; 1.803104448635371E7 ; 1.2160368700675535E9 ; 3.838626154889208E9 ; 2.2021598771427072E11 ; 0.0
191 ; 1.8015246190329727E7 ; 1.2160930646633697E9 ; 3.8566571993755617E9 ; 2.214320245843383E11 ; 0.0
192 ; 1.7983711655079823E7 ; 1.2161490349337547E9 ; 3.8746724455658913E9 ; 2.2264811764900165E11 ; 0.0
193 ; 1.7957076690910794E7 ; 1.2162047792560034E9 ; 3.892656157220971E9 ; 2.238642666839354E11 ; 0.0
194 ; 1.7920880590763457E7 ; 1.2162602960225353E9 ; 3.910613233911882E9 ; 2.250804714631914E11 ; 0.0
195 ; 1.7898977010756597E7 ; 1.2163155836406732E9 ; 3.9285341145026455E9 ; 2.2629673175921393E11 ; 0.0
