CSV File for the Network on Day 62
1 - Minute m 
2 - Power Consumed at minute m 
3 - Power Produced at minute m 
4 - Energy Consumed since the beginning of the day 
5 - Energy Produced since the beginning of the day 
6 - Energy Lost since the beginning of the day 
 
0 ; 3.843843527404232E7 ; 6.341597263393178E8 ; 0.0 ; 0.0 ; 0.0
1 ; 3.84812253159096E7 ; 6.350695626846484E8 ; 3.843843527404232E7 ; 6.341597263393178E8 ; 0.0
2 ; 3.852100738449924E7 ; 6.378328717920616E8 ; 7.691966058995193E7 ; 1.2692292890239663E9 ; 0.0
3 ; 3.8566657073054686E7 ; 6.424496771182556E8 ; 1.1544066797445117E8 ; 1.9070621608160279E9 ; 0.0
4 ; 3.862643471595779E7 ; 6.489199998114352E8 ; 1.5400732504750586E8 ; 2.5495118379342833E9 ; 0.0
5 ; 3.869099914791085E7 ; 6.572438585520859E8 ; 1.9263375976346365E8 ; 3.1984318377457185E9 ; 0.0
6 ; 3.8783177223469354E7 ; 6.674212694085678E8 ; 2.313247589113745E8 ; 3.8556756962978044E9 ; 0.0
7 ; 3.890432686806822E7 ; 6.79452245710065E8 ; 2.701079361348439E8 ; 4.523096965706372E9 ; 0.0
8 ; 3.909262081256216E7 ; 6.933367979391841E8 ; 3.090122630029121E8 ; 5.202549211416437E9 ; 0.0
9 ; 3.9377712301479906E7 ; 7.090749336462116E8 ; 3.481048838154743E8 ; 5.895886009355621E9 ; 0.0
10 ; 3.9813882581325725E7 ; 7.266666573866507E8 ; 3.874825961169542E8 ; 6.604960943001833E9 ; 0.0
11 ; 4.0500493095174864E7 ; 7.461119706832488E8 ; 4.272964786982799E8 ; 7.331627600388484E9 ; 0.0
12 ; 4.1611364360286444E7 ; 7.674108720132582E8 ; 4.6779697179345477E8 ; 8.0777395710717325E9 ; 0.0
13 ; 4.267172623850523E7 ; 7.90563356821176E8 ; 5.0940833615374124E8 ; 8.845150443084991E9 ; 0.0
14 ; 4.2799350615872115E7 ; 8.155694175567162E8 ; 5.520800623922465E8 ; 9.635713799906168E9 ; 0.0
15 ; 4.284242970870561E7 ; 8.42429043737271E8 ; 5.948794130081186E8 ; 1.0451283217462885E10 ; 0.0
16 ; 4.289497513986619E7 ; 8.711422220336576E8 ; 6.377218427168243E8 ; 1.1293712261200155E10 ; 0.0
17 ; 4.294073511669107E7 ; 9.01708936377515E8 ; 6.806168178566905E8 ; 1.2164854483233812E10 ; 0.0
18 ; 4.299401057494913E7 ; 9.341291680883579E8 ; 7.235575529733816E8 ; 1.3066563419611328E10 ; 0.0
19 ; 4.303902058635621E7 ; 9.684028960179818E8 ; 7.665515635483308E8 ; 1.4000692587699686E10 ; 0.0
20 ; 4.308897239365253E7 ; 1.004530096709688E9 ; 8.09590584134687E8 ; 1.4969095483717669E10 ; 0.0
21 ; 4.3138021892133266E7 ; 1.0425107445696472E9 ; 8.526795565283395E8 ; 1.5973625580427357E10 ; 0.0
22 ; 4.318544025827212E7 ; 1.0823448120476356E9 ; 8.958175784204727E8 ; 1.7016136324997004E10 ; 0.0
23 ; 4.323676228761833E7 ; 1.124032269824383E9 ; 9.390030186787449E8 ; 1.809848113704464E10 ; 0.0
24 ; 4.329567812677351E7 ; 1.167573087002834E9 ; 9.822397809663632E8 ; 1.9222513406869022E10 ; 0.0
25 ; 4.33391524973759E7 ; 1.205095476689858E9 ; 1.0255354590931367E9 ; 2.0390086493871857E10 ; 0.0
26 ; 4.3390543795853615E7 ; 1.2051206924091752E9 ; 1.0688746115905125E9 ; 2.1595181970561714E10 ; 0.0
27 ; 4.343808766786386E7 ; 1.2051473154391067E9 ; 1.1122651553863661E9 ; 2.280030266297089E10 ; 0.0
28 ; 4.3483052949775904E7 ; 1.205175310476379E9 ; 1.15570324305423E9 ; 2.4005449978409996E10 ; 0.0
29 ; 4.353020204741328E7 ; 1.205204641571942E9 ; 1.199186296004006E9 ; 2.5210625288886375E10 ; 0.0
30 ; 4.357065407135176E7 ; 1.205235272299104E9 ; 1.2427164980514193E9 ; 2.6415829930458317E10 ; 0.0
31 ; 4.361986152552625E7 ; 1.20526716591233E9 ; 1.286287152122771E9 ; 2.762106520275742E10 ; 0.0
32 ; 4.366811831294187E7 ; 1.2053002854958556E9 ; 1.3299070136482973E9 ; 2.882633236866975E10 ; 0.0
33 ; 4.3713050928684205E7 ; 1.2053345941015081E9 ; 1.373575131961239E9 ; 3.0031632654165607E10 ; 0.0
34 ; 4.375183970993766E7 ; 1.2053700548753645E9 ; 1.4172881828899233E9 ; 3.1236967248267117E10 ; 0.0
35 ; 4.378893146366754E7 ; 1.2054066311730847E9 ; 1.461040022599861E9 ; 3.2442337303142483E10 ; 0.0
36 ; 4.3828453045570776E7 ; 1.2054442866639357E9 ; 1.5048289540635285E9 ; 3.3647743934315567E10 ; 0.0
37 ; 4.387180576337398E7 ; 1.2054829854236903E9 ; 1.5486574071090994E9 ; 3.48531882209795E10 ; 0.0
38 ; 4.390641147969775E7 ; 1.2055226920167112E9 ; 1.5925292128724735E9 ; 3.605867120640319E10 ; 0.0
39 ; 4.393803352379435E7 ; 1.2055633715676346E9 ; 1.6364356243521712E9 ; 3.72641938984199E10 ; 0.0
40 ; 4.396964628613666E7 ; 1.205604989823164E9 ; 1.6803736578759656E9 ; 3.846975726998753E10 ; 0.0
41 ; 4.400364634845182E7 ; 1.2056475132045379E9 ; 1.7243433041621022E9 ; 3.96753622598107E10 ; 0.0
42 ; 4.403643001137201E7 ; 1.205690908851279E9 ; 1.768346950510554E9 ; 4.0881009773015236E10 ; 0.0
43 ; 4.4062311609861925E7 ; 1.205735144656866E9 ; 1.8123833805219262E9 ; 4.2086700681866516E10 ; 0.0
44 ; 4.408675967877666E7 ; 1.2057801892969742E9 ; 1.856445692131788E9 ; 4.3292435826523384E10 ; 0.0
45 ; 4.4112539491883956E7 ; 1.2058260122509332E9 ; 1.9005324518105648E9 ; 4.449821601582036E10 ; 0.0
46 ; 4.413123005311677E7 ; 1.2058725838170385E9 ; 1.9446449913024487E9 ; 4.570404202807129E10 ; 0.0
47 ; 4.4155689891017154E7 ; 1.2059198751223369E9 ; 1.9887762213555655E9 ; 4.690991461188833E10 ; 0.0
48 ; 4.4167818156014785E7 ; 1.2059678581274736E9 ; 2.0329319112465827E9 ; 4.8115834487010666E10 ; 0.0
49 ; 4.4193091798684575E7 ; 1.2060165056271703E9 ; 2.0770997294025974E9 ; 4.932180234513814E10 ; 0.0
50 ; 4.420263819651623E7 ; 1.2060657912468581E9 ; 2.121292821201282E9 ; 5.0527818850765305E10 ; 0.0
51 ; 4.421373967436595E7 ; 1.2061156894359598E9 ; 2.165495459397798E9 ; 5.173388464201216E10 ; 0.0
52 ; 4.422807741442936E7 ; 1.2061661754582818E9 ; 2.209709199072164E9 ; 5.294000033144812E10 ; 0.0
53 ; 4.4234437517687514E7 ; 1.206217225379929E9 ; 2.2539372764865932E9 ; 5.41461665069064E10 ; 0.0
54 ; 4.42539529267501E7 ; 1.2062688160551353E9 ; 2.2981717140042806E9 ; 5.535238373228633E10 ; 0.0
55 ; 4.425848112979898E7 ; 1.2063209251103506E9 ; 2.3424256669310308E9 ; 5.655865254834147E10 ; 0.0
56 ; 4.427306777509102E7 ; 1.2063735309269023E9 ; 2.3866841480608296E9 ; 5.776497347345182E10 ; 0.0
57 ; 4.427881683013121E7 ; 1.2064266126225138E9 ; 2.430957215835921E9 ; 5.897134700437872E10 ; 0.0
58 ; 4.428801855079661E7 ; 1.206480150031929E9 ; 2.475236032666052E9 ; 6.0177773617001236E10 ; 0.0
59 ; 4.4295726726954155E7 ; 1.2065341236868713E9 ; 2.5195240512168484E9 ; 6.1384253767033165E10 ; 0.0
60 ; 4.430700138681595E7 ; 1.2065885147955265E9 ; 2.5638197779438024E9 ; 6.259078789072004E10 ; 0.0
61 ; 4.431886130832333E7 ; 1.2066433052217312E9 ; 2.6081267793306184E9 ; 6.3797376405515564E10 ; 0.0
62 ; 4.432681903676982E7 ; 1.2066984774640102E9 ; 2.652445640638942E9 ; 6.50040197107373E10 ; 0.0
63 ; 4.433679583015953E7 ; 1.2067540146345966E9 ; 2.6967724596757116E9 ; 6.621071818820131E10 ; 0.0
64 ; 4.4339545085012354E7 ; 1.2068099004385471E9 ; 2.7411092555058713E9 ; 6.741747220283591E10 ; 0.0
65 ; 4.435174970131246E7 ; 1.206866119153046E9 ; 2.7854488005908837E9 ; 6.862428210327445E10 ; 0.0
66 ; 4.435133355576351E7 ; 1.2069226556069794E9 ; 2.8298005502921963E9 ; 6.98311482224275E10 ; 0.0
67 ; 4.435874215830211E7 ; 1.2069794951608505E9 ; 2.87415188384796E9 ; 7.103807087803448E10 ; 0.0
68 ; 4.4360809074270576E7 ; 1.2070366236870842E9 ; 2.9185106260062623E9 ; 7.224505037319534E10 ; 0.0
69 ; 4.4368393796272635E7 ; 1.207094027550774E9 ; 2.962871435080533E9 ; 7.345208699688243E10 ; 0.0
70 ; 4.437891073845563E7 ; 1.2071516935909038E9 ; 3.007239828876806E9 ; 7.465918102443321E10 ; 0.0
71 ; 4.437994793193582E7 ; 1.207209609102073E9 ; 3.0516187396152616E9 ; 7.586633271802411E10 ; 0.0
72 ; 4.437790289151135E7 ; 1.2072677618167455E9 ; 3.0959986875471973E9 ; 7.707354232712617E10 ; 0.0
73 ; 4.438507868159804E7 ; 1.2073261398880398E9 ; 3.140376590438709E9 ; 7.828081008894292E10 ; 0.0
74 ; 4.4388886440114304E7 ; 1.2073847318730657E9 ; 3.184761669120307E9 ; 7.948813622883096E10 ; 0.0
75 ; 4.4390493617225885E7 ; 1.2074435267168171E9 ; 3.2291505555604215E9 ; 8.069552096070403E10 ; 0.0
76 ; 4.439381524734468E7 ; 1.2075025137366204E9 ; 3.2735410491776476E9 ; 8.190296448742084E10 ; 0.0
77 ; 4.4396899787691474E7 ; 1.2075616826071336E9 ; 3.317934864424992E9 ; 8.311046700115746E10 ; 0.0
78 ; 4.438368182916443E7 ; 1.2076210233458965E9 ; 3.3623317642126837E9 ; 8.431802868376459E10 ; 0.0
79 ; 4.437085163708874E7 ; 1.2076805262994192E9 ; 3.406715446041848E9 ; 8.552564970711049E10 ; 0.0
80 ; 4.436298712364422E7 ; 1.2077401821298037E9 ; 3.451086297678937E9 ; 8.673333023340991E10 ; 0.0
81 ; 4.434048174582894E7 ; 1.207799981801886E9 ; 3.4954492848025813E9 ; 8.794107041553972E10 ; 0.0
82 ; 4.4335562496227585E7 ; 1.2078599165708869E9 ; 3.5397897665484104E9 ; 8.91488703973416E10 ; 0.0
83 ; 4.432228025832495E7 ; 1.2079199779705572E9 ; 3.584125329044638E9 ; 9.035673031391249E10 ; 0.0
84 ; 4.4306164145149216E7 ; 1.2079801578018072E9 ; 3.6284476093029633E9 ; 9.156465029188304E10 ; 0.0
85 ; 4.429204341376603E7 ; 1.2080404481217997E9 ; 3.6727537734481125E9 ; 9.277263044968484E10 ; 0.0
86 ; 4.427321318845709E7 ; 1.2081008412335005E9 ; 3.7170458168618784E9 ; 9.398067089780664E10 ; 0.0
87 ; 4.427048706359288E7 ; 1.2081613296756604E9 ; 3.7613190300503354E9 ; 9.518877173904015E10 ; 0.0
88 ; 4.424704103991257E7 ; 1.208221906213225E9 ; 3.8055895171139283E9 ; 9.63969330687158E10 ; 0.0
89 ; 4.422732322666E7 ; 1.2082825638281476E9 ; 3.849836558153841E9 ; 9.760515497492903E10 ; 0.0
90 ; 4.421823437458551E7 ; 1.2083432957105968E9 ; 3.894063881380501E9 ; 9.881343753875717E10 ; 0.0
91 ; 4.420014886187535E7 ; 1.2084040952505393E9 ; 3.9382821157550864E9 ; 1.0002178083446777E11 ; 0.0
92 ; 4.4183693472607285E7 ; 1.2084649560296857E9 ; 3.982482264616962E9 ; 1.012301849297183E11 ; 0.0
93 ; 4.41616152016262E7 ; 1.2085258718137856E9 ; 4.026665958089569E9 ; 1.0243864988574799E11 ; 0.0
94 ; 4.414105831255944E7 ; 1.208586836545255E9 ; 4.0708275732911954E9 ; 1.0364717575756177E11 ; 0.0
95 ; 4.412647680172353E7 ; 1.2086478443361237E9 ; 4.114968631603755E9 ; 1.0485576259410703E11 ; 0.0
96 ; 4.4108395456465356E7 ; 1.2087088894612918E9 ; 4.1590951084054785E9 ; 1.0606441043844315E11 ; 0.0
97 ; 4.408572687625243E7 ; 1.2087699663520777E9 ; 4.2032035038619437E9 ; 1.0727311932790443E11 ; 0.0
98 ; 4.407055856384584E7 ; 1.2088310695900486E9 ; 4.2472892307381964E9 ; 1.0848188929425652E11 ; 0.0
99 ; 4.4046813840767905E7 ; 1.2088921939011207E9 ; 4.291359789302042E9 ; 1.0969072036384656E11 ; 0.0
100 ; 4.4027597759373635E7 ; 1.2089533341499145E9 ; 4.33540660314281E9 ; 1.1089961255774768E11 ; 0.0
101 ; 4.4008948378966495E7 ; 1.2090144853343606E9 ; 4.379434200902184E9 ; 1.121085658918976E11 ; 0.0
102 ; 4.3986310937929064E7 ; 1.2090756425805361E9 ; 4.42344314928115E9 ; 1.1331758037723196E11 ; 0.0
103 ; 4.3960130891786754E7 ; 1.2091368011377304E9 ; 4.467429460219079E9 ; 1.145266560198125E11 ; 0.0
104 ; 4.393454614054975E7 ; 1.2091979563737214E9 ; 4.511389591110866E9 ; 1.1573579282095023E11 ; 0.0
105 ; 4.391839565536856E7 ; 1.2092591037702615E9 ; 4.555324137251415E9 ; 1.1694499077732394E11 ; 0.0
106 ; 4.3899327259946644E7 ; 1.2093202389187574E9 ; 4.599242532906784E9 ; 1.1815424988109421E11 ; 0.0
107 ; 4.3872121441143416E7 ; 1.2093813575161362E9 ; 4.643141860166731E9 ; 1.1936357012001297E11 ; 0.0
108 ; 4.38431083975163E7 ; 1.2094424553608918E9 ; 4.687013981607874E9 ; 1.2057295147752911E11 ; 0.0
109 ; 4.3827484272898614E7 ; 1.209503528349304E9 ; 4.73085709000539E9 ; 1.2178239393289E11 ; 0.0
110 ; 4.3800921219914086E7 ; 1.2095645724718149E9 ; 4.774684574278289E9 ; 1.229918974612393E11 ; 0.0
111 ; 4.3771153714311406E7 ; 1.2096255838095665E9 ; 4.818485495498203E9 ; 1.2420146203371112E11 ; 0.0
112 ; 4.374230902515672E7 ; 1.2096865585310853E9 ; 4.862256649212515E9 ; 1.2541108761752069E11 ; 0.0
113 ; 4.3720027289774604E7 ; 1.2097474928891063E9 ; 4.905998958237672E9 ; 1.2662077417605177E11 ; 0.0
114 ; 4.36938426721915E7 ; 1.209808383217535E9 ; 4.949718985527447E9 ; 1.2783052166894087E11 ; 0.0
115 ; 4.366580280674989E7 ; 1.2098692259285383E9 ; 4.993412828199638E9 ; 1.290403300521584E11 ; 0.0
116 ; 4.3637997051721856E7 ; 1.2099300175097585E9 ; 5.037078631006389E9 ; 1.3025019927808694E11 ; 0.0
117 ; 4.360961591939597E7 ; 1.2099907545216424E9 ; 5.08071662805811E9 ; 1.3146012929559671E11 ; 0.0
118 ; 4.3576377084111676E7 ; 1.210051433594889E9 ; 5.124326243977507E9 ; 1.3267012005011835E11 ; 0.0
119 ; 4.355088752686528E7 ; 1.2101120514279974E9 ; 5.167902621061618E9 ; 1.3388017148371324E11 ; 0.0
120 ; 4.3525498178638056E7 ; 1.2101726047849226E9 ; 5.211453508588483E9 ; 1.3509028353514124E11 ; 0.0
121 ; 4.349480164726755E7 ; 1.210233090492827E9 ; 5.254979006767121E9 ; 1.3630045613992616E11 ; 0.0
122 ; 4.3463090593205705E7 ; 1.210293505439924E9 ; 5.298473808414389E9 ; 1.3751068923041898E11 ; 0.0
123 ; 4.343154623532209E7 ; 1.2103538465734153E9 ; 5.341936899007594E9 ; 1.387209827358589E11 ; 0.0
124 ; 4.340551541033917E7 ; 1.2104141108975067E9 ; 5.385368445242916E9 ; 1.399313365824323E11 ; 0.0
125 ; 4.337286955801307E7 ; 1.2104742954715128E9 ; 5.428773960653255E9 ; 1.4114175069332983E11 ; 0.0
126 ; 4.334019087318735E7 ; 1.2105343974080338E9 ; 5.472146830211268E9 ; 1.4235222498880136E11 ; 0.0
127 ; 4.33100247759065E7 ; 1.2105944138712096E9 ; 5.5154870210844555E9 ; 1.4356275938620938E11 ; 0.0
128 ; 4.327456587298328E7 ; 1.2106543420750432E9 ; 5.558797045860362E9 ; 1.447733538000806E11 ; 0.0
129 ; 4.324374638023242E7 ; 1.2107141792817945E9 ; 5.602071611733345E9 ; 1.4598400814215564E11 ; 0.0
130 ; 4.320520406750201E7 ; 1.2107739228004363E9 ; 5.645315358113578E9 ; 1.4719472232143744E11 ; 0.0
131 ; 4.3158418973483026E7 ; 1.2108335699851727E9 ; 5.68852056218108E9 ; 1.4840549624423788E11 ; 0.0
132 ; 4.310470991803095E7 ; 1.2108931182340202E9 ; 5.731678981154563E9 ; 1.4961632981422305E11 ; 0.0
133 ; 4.305799203460199E7 ; 1.2109525649874394E9 ; 5.774783691072594E9 ; 1.5082722293245706E11 ; 0.0
134 ; 4.301812123817377E7 ; 1.2110119077270281E9 ; 5.817841683107196E9 ; 1.520381754974445E11 ; 0.0
135 ; 4.297165093522071E7 ; 1.2110711439742599E9 ; 5.860859804345369E9 ; 1.532491874051715E11 ; 0.0
136 ; 4.292056007341607E7 ; 1.2111302712892761E9 ; 5.90383145528059E9 ; 1.5446025854914578E11 ; 0.0
137 ; 4.286767976220217E7 ; 1.2111892872697248E9 ; 5.946752015354006E9 ; 1.5567138882043506E11 ; 0.0
138 ; 4.282152302099568E7 ; 1.211248189549645E9 ; 5.989619695116208E9 ; 1.5688257810770477E11 ; 0.0
139 ; 4.277134371212853E7 ; 1.2113069757983918E9 ; 6.032441218137204E9 ; 1.5809382629725443E11 ; 0.0
140 ; 4.271565892515011E7 ; 1.2113656437196093E9 ; 6.075212561849333E9 ; 1.5930513327305283E11 ; 0.0
141 ; 4.266683276389305E7 ; 1.2114241910502362E9 ; 6.117928220774483E9 ; 1.6051649891677243E11 ; 0.0
142 ; 4.261859548451692E7 ; 1.2114826155595548E9 ; 6.160595053538376E9 ; 1.6172792310782266E11 ; 0.0
143 ; 4.256203576644053E7 ; 1.2115409150482745E9 ; 6.203213649022893E9 ; 1.629394057233822E11 ; 0.0
144 ; 4.25122906101616E7 ; 1.2115990873476512E9 ; 6.245775684789333E9 ; 1.6415094663843048E11 ; 0.0
145 ; 4.247877497509617E7 ; 1.2116571303186374E9 ; 6.288287975399495E9 ; 1.6536254572577814E11 ; 0.0
146 ; 4.24380785515455E7 ; 1.2117150418510692E9 ; 6.330766750374591E9 ; 1.6657420285609677E11 ; 0.0
147 ; 4.240275827827575E7 ; 1.2117728198628817E9 ; 6.373204828926136E9 ; 1.6778591789794785E11 ; 0.0
148 ; 4.236976197254484E7 ; 1.2118304622993517E9 ; 6.4156075872044115E9 ; 1.6899769071781073E11 ; 0.0
149 ; 4.233846613532822E7 ; 1.2118879671323733E9 ; 6.457977349176956E9 ; 1.7020952118011008E11 ; 0.0
150 ; 4.229847108963996E7 ; 1.2119453323597567E9 ; 6.500315815312284E9 ; 1.7142140914724246E11 ; 0.0
151 ; 4.226161534818727E7 ; 1.2120025560045555E9 ; 6.542614286401924E9 ; 1.7263335447960223E11 ; 0.0
152 ; 4.222519479687333E7 ; 1.212059636114418E9 ; 6.584875901750112E9 ; 1.7384535703560678E11 ; 0.0
153 ; 4.218487975281559E7 ; 1.212116570760962E9 ; 6.627101096546985E9 ; 1.750574166717212E11 ; 0.0
154 ; 4.2151970627391726E7 ; 1.212173358039175E9 ; 6.6692859762998E9 ; 1.7626953324248215E11 ; 0.0
155 ; 4.210820673051376E7 ; 1.212229996066832E9 ; 6.711437946927192E9 ; 1.7748170660052133E11 ; 0.0
156 ; 4.2077310170745485E7 ; 1.2122864829839396E9 ; 6.753546153657705E9 ; 1.7869393659658817E11 ; 0.0
157 ; 4.204115220459827E7 ; 1.2123428169521961E9 ; 6.795623463828451E9 ; 1.799062230795721E11 ; 0.0
158 ; 4.200255051695113E7 ; 1.2123989961544747E9 ; 6.83766461603305E9 ; 1.8111856589652432E11 ; 0.0
159 ; 4.195937604683314E7 ; 1.212455018794323E9 ; 6.879667166550001E9 ; 1.823309648926788E11 ; 0.0
160 ; 4.192488156705597E7 ; 1.2125108830954804E9 ; 6.921626542596834E9 ; 1.835434199114731E11 ; 0.0
161 ; 4.188476699906473E7 ; 1.2125665873014154E9 ; 6.96355142416389E9 ; 1.847559307945686E11 ; 0.0
162 ; 4.184644242338871E7 ; 1.212622129674877E9 ; 7.005436191162954E9 ; 1.8596849738187003E11 ; 0.0
163 ; 4.181253178556615E7 ; 1.2126775084974623E9 ; 7.047282633586343E9 ; 1.871811195115449E11 ; 0.0
164 ; 4.177439436659071E7 ; 1.212732722069201E9 ; 7.089095165371909E9 ; 1.8839379702004236E11 ; 0.0
165 ; 4.173267220817157E7 ; 1.2127877687081537E9 ; 7.1308695597385E9 ; 1.8960652974211157E11 ; 0.0
166 ; 4.168554777735576E7 ; 1.212842646750023E9 ; 7.1726022319466715E9 ; 1.9081931751081973E11 ; 0.0
167 ; 4.165595985899382E7 ; 1.2128973545477817E9 ; 7.214287779724028E9 ; 1.9203216015756976E11 ; 0.0
168 ; 4.161106463000274E7 ; 1.2129518904713104E9 ; 7.255943739583021E9 ; 1.9324505751211755E11 ; 0.0
169 ; 4.157172139844529E7 ; 1.2130062529070497E9 ; 7.297554804213024E9 ; 1.9445800940258887E11 ; 0.0
170 ; 4.153158457794126E7 ; 1.2130604402576656E9 ; 7.339126525611469E9 ; 1.956710156554959E11 ; 0.0
171 ; 4.149385884857262E7 ; 1.2131144509417224E9 ; 7.38065811018941E9 ; 1.9688407609575357E11 ; 0.0
172 ; 4.145066109574677E7 ; 1.213168283393373E9 ; 7.422151969037983E9 ; 1.9809719054669528E11 ; 0.0
173 ; 4.141648236916392E7 ; 1.213221936062054E9 ; 7.46360263013373E9 ; 1.9931035883008865E11 ; 0.0
174 ; 4.138990705007628E7 ; 1.2132754074121947E9 ; 7.505019112502893E9 ; 2.005235807661507E11 ; 0.0
175 ; 4.136629303344852E7 ; 1.213328695922936E9 ; 7.54640901955297E9 ; 2.017368561735629E11 ; 0.0
176 ; 4.134566988230982E7 ; 1.2133818000878572E9 ; 7.587775312586418E9 ; 2.0295018486948584E11 ; 0.0
177 ; 4.132243396398722E7 ; 1.2134347184147143E9 ; 7.629120982468728E9 ; 2.041635666695737E11 ; 0.0
178 ; 4.129957509099563E7 ; 1.2134874494251847E9 ; 7.670443416432715E9 ; 2.053770013879884E11 ; 0.0
179 ; 4.127180523645146E7 ; 1.2135399916546237E9 ; 7.711742991523711E9 ; 2.0659048883741357E11 ; 0.0
180 ; 4.123907186956874E7 ; 1.213592343651825E9 ; 7.753014796760162E9 ; 2.078040288290682E11 ; 0.0
181 ; 4.122062552547175E7 ; 1.213644503978795E9 ; 7.794253868629731E9 ; 2.0901762117272003E11 ; 0.0
182 ; 4.1200787494449094E7 ; 1.2136964712105289E9 ; 7.835474494155203E9 ; 2.1023126567669882E11 ; 0.0
183 ; 4.117280370198959E7 ; 1.2137482439347985E9 ; 7.876675281649652E9 ; 2.1144496214790936E11 ; 0.0
184 ; 4.113787141521197E7 ; 1.213799820751945E9 ; 7.917848085351641E9 ; 2.1265871039184415E11 ; 0.0
185 ; 4.112103768810008E7 ; 1.2138512002746792E9 ; 7.958985956766852E9 ; 2.138725102125961E11 ; 0.0
186 ; 4.1092371099448405E7 ; 1.2139023811278892E9 ; 8.000106994454952E9 ; 2.150863614128708E11 ; 0.0
187 ; 4.1073627122351706E7 ; 1.2139533619484525E9 ; 8.0411993655544E9 ; 2.163002637939987E11 ; 0.0
188 ; 4.104352640953926E7 ; 1.2140041413850574E9 ; 8.082272992676752E9 ; 2.1751421715594714E11 ; 0.0
189 ; 4.1027650250780754E7 ; 1.2140547180980275E9 ; 8.123316519086291E9 ; 2.187282212973322E11 ; 0.0
190 ; 4.099766119036606E7 ; 1.2141050907591534E9 ; 8.164344169337072E9 ; 2.1994227601543024E11 ; 0.0
191 ; 4.097620877794034E7 ; 1.214155258051529E9 ; 8.205341830527438E9 ; 2.211563811061894E11 ; 0.0
192 ; 4.0947105740976214E7 ; 1.214205218669396E9 ; 8.246318039305379E9 ; 2.223705363642409E11 ; 0.0
193 ; 4.0921738268221855E7 ; 1.2142549713179882E9 ; 8.287265145046355E9 ; 2.235847415829103E11 ; 0.0
194 ; 4.090176095899359E7 ; 1.214304514713387E9 ; 8.328186883314577E9 ; 2.247989965542283E11 ; 0.0
195 ; 4.0875633211030014E7 ; 1.2143538475823774E9 ; 8.369088644273571E9 ; 2.2601330106894168E11 ; 0.0
196 ; 4.085712853860494E7 ; 1.2144029686623108E9 ; 8.409964277484601E9 ; 2.2722765491652405E11 ; 0.0
