CSV File for the Network on Day 83
1 - Minute m 
2 - Power Consumed at minute m 
3 - Power Produced at minute m 
4 - Energy Consumed since the beginning of the day 
5 - Energy Produced since the beginning of the day 
6 - Energy Lost since the beginning of the day 
 
0 ; 3.8588598344049744E7 ; 6.348991000019965E8 ; 0.0 ; 0.0 ; 0.0
1 ; 3.8616168791473E7 ; 6.358098245431194E8 ; 3.8588598344049744E7 ; 6.348991000019965E8 ; 0.0
2 ; 3.866424165999E7 ; 6.385739477599667E8 ; 7.720476713552275E7 ; 1.270708924545116E9 ; 0.0
3 ; 3.8714350156316444E7 ; 6.431914869858952E8 ; 1.1586900879551275E8 ; 1.9092828723050828E9 ; 0.0
4 ; 3.876757427256193E7 ; 6.496624577692668E8 ; 1.545833589518292E8 ; 2.552474359290978E9 ; 0.0
5 ; 3.8837423186666064E7 ; 6.579868737823927E8 ; 1.9335093322439113E8 ; 3.2021368170602446E9 ; 0.0
6 ; 3.892920110164903E7 ; 6.681647467398376E8 ; 2.321883564110572E8 ; 3.860123690842637E9 ; 0.0
7 ; 3.906065130924651E7 ; 6.801960863272061E8 ; 2.711175575127062E8 ; 4.528288437582475E9 ; 0.0
8 ; 3.9248205827593416E7 ; 6.940809001414118E8 ; 3.101782088219527E8 ; 5.208484523909681E9 ; 0.0
9 ; 3.953179076022362E7 ; 7.098191936432858E8 ; 3.4942641464954615E8 ; 5.902565424051093E9 ; 0.0
10 ; 3.995911546128706E7 ; 7.274109701232159E8 ; 3.889582054097698E8 ; 6.612384617694379E9 ; 0.0
11 ; 4.065221647297372E7 ; 7.46856230680323E8 ; 4.2891732087105685E8 ; 7.339795587817595E9 ; 0.0
12 ; 4.176034685206469E7 ; 7.68154974215486E8 ; 4.6956953734403056E8 ; 8.086651818497917E9 ; 0.0
13 ; 4.282443945897578E7 ; 7.913071974383173E8 ; 5.113298841960952E8 ; 8.854806792713404E9 ; 0.0
14 ; 4.295000806592613E7 ; 8.16312894887986E8 ; 5.54154323655071E8 ; 9.646113990151722E9 ; 0.0
15 ; 4.298906279579043E7 ; 8.431720589675779E8 ; 5.971043317209971E8 ; 1.0462426885039707E10 ; 0.0
16 ; 4.3047243759568125E7 ; 8.71884679991489E8 ; 6.400933945167875E8 ; 1.1305598944007286E10 ; 0.0
17 ; 4.309694335950029E7 ; 9.024507462451545E8 ; 6.831406382763556E8 ; 1.2177483623998775E10 ; 0.0
18 ; 4.315040146492411E7 ; 9.34870244056263E8 ; 7.262375816358559E8 ; 1.307993437024393E10 ; 0.0
19 ; 4.3199939471243225E7 ; 9.691431578764527E8 ; 7.6938798310078E8 ; 1.4014804614300194E10 ; 0.0
20 ; 4.324352246697512E7 ; 1.0052694703723667E9 ; 8.125879225720233E8 ; 1.4983947772176647E10 ; 0.0
21 ; 4.3293780709442556E7 ; 1.0432491625248588E9 ; 8.558314450389984E8 ; 1.5989217242549013E10 ; 0.0
22 ; 4.334591691660844E7 ; 1.0830822137350707E9 ; 8.99125225748441E8 ; 1.7032466405073872E10 ; 0.0
23 ; 4.3399655595969684E7 ; 1.1247686019360654E9 ; 9.424711426650494E8 ; 1.811554861880894E10 ; 0.0
24 ; 4.344873072059247E7 ; 1.168308303708696E9 ; 9.858707982610191E8 ; 1.9240317220745007E10 ; 0.0
25 ; 4.349826989639191E7 ; 1.2058295397895045E9 ; 1.0293195289816116E9 ; 2.04086255244537E10 ; 0.0
26 ; 4.355136975797504E7 ; 1.2058535714125574E9 ; 1.0728177988780035E9 ; 2.1614455064243206E10 ; 0.0
27 ; 4.359641172631511E7 ; 1.2058789875797763E9 ; 1.1163691686359785E9 ; 2.282030863565576E10 ; 0.0
28 ; 4.364189945962879E7 ; 1.2059057606618154E9 ; 1.1599655803622935E9 ; 2.402618762323554E10 ; 0.0
29 ; 4.369349242713882E7 ; 1.2059338622760634E9 ; 1.2036074798219223E9 ; 2.5232093383897354E10 ; 0.0
30 ; 4.373747412870168E7 ; 1.2059632634025288E9 ; 1.247300972249061E9 ; 2.6438027246173416E10 ; 0.0
31 ; 4.378837002135596E7 ; 1.205993934496257E9 ; 1.2910384463777628E9 ; 2.7643990509575943E10 ; 0.0
32 ; 4.383441573386936E7 ; 1.2060258455955634E9 ; 1.3348268163991187E9 ; 2.88499844440722E10 ; 0.0
33 ; 4.388261487427251E7 ; 1.206058966425486E9 ; 1.378661232132988E9 ; 3.0056010289667763E10 ; 0.0
34 ; 4.3918728340354905E7 ; 1.206093266495974E9 ; 1.4225438470072606E9 ; 3.126206925609325E10 ; 0.0
35 ; 4.39642181192411E7 ; 1.206128715194432E9 ; 1.4664625753476155E9 ; 3.2468162522589226E10 ; 0.0
36 ; 4.4001219183348976E7 ; 1.206165281872349E9 ; 1.5104267934668565E9 ; 3.3674291237783657E10 ; 0.0
37 ; 4.403760310284611E7 ; 1.2062029359258325E9 ; 1.5544280126502054E9 ; 3.4880456519656006E10 ; 0.0
38 ; 4.408014672873402E7 ; 1.206241646869958E9 ; 1.5984656157530515E9 ; 3.608665945558184E10 ; 0.0
39 ; 4.411701225700885E7 ; 1.2062813844069214E9 ; 1.6425457624817855E9 ; 3.72929011024518E10 ; 0.0
40 ; 4.4153688327202044E7 ; 1.2063221184880507E9 ; 1.6866627747387943E9 ; 3.849918248685872E10 ; 0.0
41 ; 4.4182590636918314E7 ; 1.2063638193697972E9 ; 1.7308164630659964E9 ; 3.970550460534677E10 ; 0.0
42 ; 4.4207563401328884E7 ; 1.2064064576638708E9 ; 1.7749990537029147E9 ; 4.091186842471657E10 ; 0.0
43 ; 4.424231411811901E7 ; 1.206450004381731E9 ; 1.8192066171042435E9 ; 4.211827488238044E10 ; 0.0
44 ; 4.4273765974531926E7 ; 1.2064944309736793E9 ; 1.8634489312223625E9 ; 4.332472488676217E10 ; 0.0
45 ; 4.42946247259046E7 ; 1.2065397093628163E9 ; 1.9077226971968944E9 ; 4.453121931773585E10 ; 0.0
46 ; 4.431830799267169E7 ; 1.2065858119741602E9 ; 1.952017321922799E9 ; 4.573775902709866E10 ; 0.0
47 ; 4.4338660552570775E7 ; 1.20663271175922E9 ; 1.9963356299154708E9 ; 4.694434483907282E10 ; 0.0
48 ; 4.436131581575614E7 ; 1.2066803822163334E9 ; 2.0406742904680417E9 ; 4.815097755083204E10 ; 0.0
49 ; 4.4376803596092254E7 ; 1.2067287974070835E9 ; 2.0850356062837977E9 ; 4.935765793304837E10 ; 0.0
50 ; 4.4387108779775605E7 ; 1.2067779319690938E9 ; 2.12941240987989E9 ; 5.056438673045545E10 ; 0.0
51 ; 4.440676787399477E7 ; 1.20682776112551E9 ; 2.1737995186596656E9 ; 5.1771164662424545E10 ; 0.0
52 ; 4.441429884494805E7 ; 1.2068782606914601E9 ; 2.2182062865336604E9 ; 5.297799242355006E10 ; 0.0
53 ; 4.443848318000306E7 ; 1.2069294070777755E9 ; 2.2626205853786087E9 ; 5.4184870684241516E10 ; 0.0
54 ; 4.444548675305824E7 ; 1.2069811772922463E9 ; 2.307059068558612E9 ; 5.539180009131929E10 ; 0.0
55 ; 4.4457920881580025E7 ; 1.2070335489386644E9 ; 2.3515045553116703E9 ; 5.6598781268611534E10 ; 0.0
56 ; 4.4472417594740264E7 ; 1.2070865002138991E9 ; 2.39596247619325E9 ; 5.78058148175502E10 ; 0.0
57 ; 4.448111361278448E7 ; 1.207140009903236E9 ; 2.4404348937879906E9 ; 5.90129013177641E10 ; 0.0
58 ; 4.4488504639038645E7 ; 1.2071940573741844E9 ; 2.484916007400775E9 ; 6.0220041327667336E10 ; 0.0
59 ; 4.450073915989758E7 ; 1.2072486225689573E9 ; 2.5294045120398135E9 ; 6.142723538504152E10 ; 0.0
60 ; 4.451504143801682E7 ; 1.2073036859958026E9 ; 2.5739052511997113E9 ; 6.263448400761047E10 ; 0.0
61 ; 4.452057824608297E7 ; 1.2073592287193532E9 ; 2.618420292637728E9 ; 6.384178769360628E10 ; 0.0
62 ; 4.453182004801045E7 ; 1.20741523235015E9 ; 2.662940870883811E9 ; 6.504914692232563E10 ; 0.0
63 ; 4.454346941361268E7 ; 1.2074716790334764E9 ; 2.7074726909318213E9 ; 6.625656215467578E10 ; 0.0
64 ; 4.454987535422425E7 ; 1.2075285514376326E9 ; 2.752016160345434E9 ; 6.746403383370926E10 ; 0.0
65 ; 4.4557499281927995E7 ; 1.2075858327417617E9 ; 2.7965660356996584E9 ; 6.867156238514689E10 ; 0.0
66 ; 4.457362516578606E7 ; 1.2076435066233318E9 ; 2.8411235349815865E9 ; 6.987914821788866E10 ; 0.0
67 ; 4.457398385027942E7 ; 1.207701557245367E9 ; 2.8856971601473727E9 ; 7.1086791724512E10 ; 0.0
68 ; 4.4584452362073064E7 ; 1.2077599692435093E9 ; 2.930271143997652E9 ; 7.229449328175735E10 ; 0.0
69 ; 4.458746942994053E7 ; 1.2078187277129798E9 ; 2.974855596359725E9 ; 7.350225325100087E10 ; 0.0
70 ; 4.459071852521885E7 ; 1.207877818195511E9 ; 3.0194430657896657E9 ; 7.471007197871385E10 ; 0.0
71 ; 4.4597831465283915E7 ; 1.2079372266663036E9 ; 3.0640337843148847E9 ; 7.591794979690936E10 ; 0.0
72 ; 4.460802908624181E7 ; 1.2079969395210516E9 ; 3.1086316157801685E9 ; 7.712588702357567E10 ; 0.0
73 ; 4.461339760476073E7 ; 1.2080569435630887E9 ; 3.1532396448664103E9 ; 7.833388396309673E10 ; 0.0
74 ; 4.461861370579796E7 ; 1.208117225990685E9 ; 3.197853042471171E9 ; 7.954194090665982E10 ; 0.0
75 ; 4.4626285720578946E7 ; 1.208177774384529E9 ; 3.242471656176969E9 ; 8.075005813265051E10 ; 0.0
76 ; 4.462481537926154E7 ; 1.2082385766954198E9 ; 3.287097941897548E9 ; 8.195823590703503E10 ; 0.0
77 ; 4.4625733379739985E7 ; 1.2082996212321935E9 ; 3.3317227572768097E9 ; 8.316647448373045E10 ; 0.0
78 ; 4.461925788301039E7 ; 1.2083608966499004E9 ; 3.3763484906565495E9 ; 8.437477410496265E10 ; 0.0
79 ; 4.4611508037236E7 ; 1.208422391938251E9 ; 3.42096774853956E9 ; 8.558313500161255E10 ; 0.0
80 ; 4.459626670501743E7 ; 1.2084840964103365E9 ; 3.465579256576796E9 ; 8.67915573935508E10 ; 0.0
81 ; 4.4585419629629366E7 ; 1.20854599969164E9 ; 3.5101755232818136E9 ; 8.800004148996114E10 ; 0.0
82 ; 4.4574233739732265E7 ; 1.208608091709341E9 ; 3.5547609429114428E9 ; 8.920858748965277E10 ; 0.0
83 ; 4.4565232192522965E7 ; 1.2086703626819177E9 ; 3.599335176651175E9 ; 9.04171955813621E10 ; 0.0
84 ; 4.4552408862781055E7 ; 1.2087328031090484E9 ; 3.643900408843698E9 ; 9.162586594404402E10 ; 0.0
85 ; 4.4532392993731774E7 ; 1.2087954037618191E9 ; 3.688452817706479E9 ; 9.283459874715308E10 ; 0.0
86 ; 4.452646189420917E7 ; 1.2088581556732283E9 ; 3.732985210700211E9 ; 9.40433941509149E10 ; 0.0
87 ; 4.451461493242629E7 ; 1.208921050128992E9 ; 3.7775116725944204E9 ; 9.525225230658813E10 ; 0.0
88 ; 4.450467455164645E7 ; 1.2089840786586473E9 ; 3.822026287526847E9 ; 9.646117335671713E10 ; 0.0
89 ; 4.448113454455865E7 ; 1.209047233026946E9 ; 3.866530962078493E9 ; 9.767015743537578E10 ; 0.0
90 ; 4.4468233711573444E7 ; 1.2091105052255387E9 ; 3.9110120966230516E9 ; 9.887920466840273E10 ; 0.0
91 ; 4.4453052900817595E7 ; 1.20917388746494E9 ; 3.9554803303346252E9 ; 1.0008831517362827E11 ; 0.0
92 ; 4.444554927305736E7 ; 1.2092373721667745E9 ; 3.9999333832354426E9 ; 1.012974890610932E11 ; 0.0
93 ; 4.442936436881642E7 ; 1.2093009519562893E9 ; 4.0443789325085E9 ; 1.0250672643325998E11 ; 0.0
94 ; 4.440677513720955E7 ; 1.209364619655135E9 ; 4.0888082968773165E9 ; 1.0371602738521626E11 ; 0.0
95 ; 4.4390770333684E7 ; 1.2094283682744048E9 ; 4.133215072014526E9 ; 1.049253920048714E11 ; 0.0
96 ; 4.4378619116560034E7 ; 1.2094921910079234E9 ; 4.17760584234821E9 ; 1.061348203731458E11 ; 0.0
97 ; 4.43560676439491E7 ; 1.2095560812257795E9 ; 4.22198446146477E9 ; 1.0734431256415372E11 ; 0.0
98 ; 4.43356870249901E7 ; 1.2096200324680982E9 ; 4.266340529108719E9 ; 1.085538686453795E11 ; 0.0
99 ; 4.432838888424578E7 ; 1.2096840384390402E9 ; 4.310676216133709E9 ; 1.097634886778476E11 ; 0.0
100 ; 4.43022600935826E7 ; 1.2097480930010266E9 ; 4.355004605017955E9 ; 1.1097317271628664E11 ; 0.0
101 ; 4.428736424277483E7 ; 1.2098121901691754E9 ; 4.399306865111537E9 ; 1.1218292080928766E11 ; 0.0
102 ; 4.427105432845166E7 ; 1.2098763241059506E9 ; 4.443594229354312E9 ; 1.1339273299945683E11 ; 0.0
103 ; 4.424973641444683E7 ; 1.209940489116011E9 ; 4.487865283682764E9 ; 1.1460260932356279E11 ; 0.0
104 ; 4.422347986035503E7 ; 1.210004679641251E9 ; 4.532115020097211E9 ; 1.158125498126788E11 ; 0.0
105 ; 4.420180990355641E7 ; 1.2100688902560344E9 ; 4.576338499957566E9 ; 1.1702255449232005E11 ; 0.0
106 ; 4.418111591516684E7 ; 1.2101331156626048E9 ; 4.620540309861123E9 ; 1.1823262338257608E11 ; 0.0
107 ; 4.416552748747217E7 ; 1.2101973506866717E9 ; 4.66472142577629E9 ; 1.1944275649823868E11 ; 0.0
108 ; 4.414521519862862E7 ; 1.2102615902731667E9 ; 4.708886953263762E9 ; 1.2065295384892535E11 ; 0.0
109 ; 4.4119187282206684E7 ; 1.210325829482158E9 ; 4.753032168462391E9 ; 1.2186321543919852E11 ; 0.0
110 ; 4.4098188496919416E7 ; 1.2103900634849262E9 ; 4.797151355744597E9 ; 1.2307354126868068E11 ; 0.0
111 ; 4.4072381608119264E7 ; 1.2104542875601845E9 ; 4.841249544241517E9 ; 1.242839313321656E11 ; 0.0
112 ; 4.405682763918211E7 ; 1.210518497090447E9 ; 4.885321925849636E9 ; 1.2549438561972578E11 ; 0.0
113 ; 4.4029991054748386E7 ; 1.2105826875585353E9 ; 4.929378753488818E9 ; 1.2670490411681624E11 ; 0.0
114 ; 4.401237196898967E7 ; 1.2106468545442185E9 ; 4.973408744543567E9 ; 1.2791548680437477E11 ; 0.0
115 ; 4.397533613444651E7 ; 1.2107109937209811E9 ; 5.017421116512556E9 ; 1.2912613365891899E11 ; 0.0
116 ; 4.395852869573364E7 ; 1.2107751008529155E9 ; 5.061396452647002E9 ; 1.3033684465263997E11 ; 0.0
117 ; 4.392405764489815E7 ; 1.2108391717917323E9 ; 5.105354981342736E9 ; 1.3154761975349289E11 ; 0.0
118 ; 4.390929031297141E7 ; 1.2109032024738858E9 ; 5.149279038987635E9 ; 1.3275845892528462E11 ; 0.0
119 ; 4.387705522778998E7 ; 1.210967188917808E9 ; 5.193188329300606E9 ; 1.3396936212775851E11 ; 0.0
120 ; 4.385148631470829E7 ; 1.2110311272212477E9 ; 5.237065384528396E9 ; 1.3518032931667632E11 ; 0.0
121 ; 4.382358811728541E7 ; 1.2110950135587125E9 ; 5.280916870843104E9 ; 1.3639136044389757E11 ; 0.0
122 ; 4.3796896142152384E7 ; 1.211158844179006E9 ; 5.32474045896039E9 ; 1.3760245545745627E11 ; 0.0
123 ; 4.376749020214051E7 ; 1.2112226154028602E9 ; 5.368537355102543E9 ; 1.3881361430163528E11 ; 0.0
124 ; 4.3741248358384944E7 ; 1.2112863236206548E9 ; 5.412304845304684E9 ; 1.4002483691703815E11 ; 0.0
125 ; 4.371678831772852E7 ; 1.211349965290225E9 ; 5.456046093663069E9 ; 1.412361232406588E11 ; 0.0
126 ; 4.368557495203727E7 ; 1.2114135369347527E9 ; 5.499762881980797E9 ; 1.4244747320594904E11 ; 0.0
127 ; 4.365410420723429E7 ; 1.2114770351407328E9 ; 5.543448456932834E9 ; 1.436588867428838E11 ; 0.0
128 ; 4.362878419882403E7 ; 1.2115404565560205E9 ; 5.587102561140068E9 ; 1.4487036377802454E11 ; 0.0
129 ; 4.358895543184472E7 ; 1.211603797887949E9 ; 5.630731345338892E9 ; 1.4608190423458057E11 ; 0.0
130 ; 4.355607476325456E7 ; 1.2116670559015188E9 ; 5.674320300770737E9 ; 1.472935080324685E11 ; 0.0
131 ; 4.3513864014982805E7 ; 1.2117302274176526E9 ; 5.717876375533991E9 ; 1.4850517508837003E11 ; 0.0
132 ; 4.347169669297295E7 ; 1.2117933093115187E9 ; 5.761390239548974E9 ; 1.497169053157877E11 ; 0.0
133 ; 4.342356879531611E7 ; 1.2118562985109112E9 ; 5.804861936241947E9 ; 1.509286986250992E11 ; 0.0
134 ; 4.3373385521609545E7 ; 1.2119191919946966E9 ; 5.848285505037263E9 ; 1.5214055492361014E11 ; 0.0
135 ; 4.33338089409583E7 ; 1.2119819867913108E9 ; 5.891658890558872E9 ; 1.5335247411560483E11 ; 0.0
136 ; 4.328869877063586E7 ; 1.212044679977318E9 ; 5.93499269949983E9 ; 1.5456445610239615E11 ; 0.0
137 ; 4.3236034577890605E7 ; 1.212107268676017E9 ; 5.978281398270466E9 ; 1.5577650078237347E11 ; 0.0
138 ; 4.3195744371074915E7 ; 1.212169750056102E9 ; 6.021517432848356E9 ; 1.569886080510495E11 ; 0.0
139 ; 4.3146319759352915E7 ; 1.2122321213303702E9 ; 6.064713177219431E9 ; 1.582007778011056E11 ; 0.0
140 ; 4.3100832895661145E7 ; 1.2122943797544775E9 ; 6.107859496978784E9 ; 1.5941300992243597E11 ; 0.0
141 ; 4.305391531953809E7 ; 1.21235652262574E9 ; 6.150960329874445E9 ; 1.6062530430219046E11 ; 0.0
142 ; 4.300961671743428E7 ; 1.2124185472819762E9 ; 6.194014245193983E9 ; 1.618376608248162E11 ; 0.0
143 ; 4.295606184881327E7 ; 1.2124804511003933E9 ; 6.237023861911417E9 ; 1.6305007937209818E11 ; 0.0
144 ; 4.290492774372165E7 ; 1.2125422314965134E9 ; 6.27997992376023E9 ; 1.6426255982319858E11 ; 0.0
145 ; 4.287358349055128E7 ; 1.2126038859231367E9 ; 6.322884851503952E9 ; 1.654751020546951E11 ; 0.0
146 ; 4.284218786339739E7 ; 1.2126654118693428E9 ; 6.365758434994503E9 ; 1.6668770594061823E11 ; 0.0
147 ; 4.281060590349969E7 ; 1.2127268068595283E9 ; 6.408600622857901E9 ; 1.6790037135248758E11 ; 0.0
148 ; 4.2776415331724584E7 ; 1.2127880684524758E9 ; 6.4514112287614E9 ; 1.691130981593471E11 ; 0.0
149 ; 4.274542028375182E7 ; 1.21284919424046E9 ; 6.494187644093124E9 ; 1.703258862277996E11 ; 0.0
150 ; 4.27111022449343E7 ; 1.2129101818483806E9 ; 6.536933064376876E9 ; 1.7153873542204004E11 ; 0.0
151 ; 4.268031905818197E7 ; 1.2129710289329307E9 ; 6.57964416662181E9 ; 1.7275164560388843E11 ; 0.0
152 ; 4.264101567468781E7 ; 1.2130317331817894E9 ; 6.622324485679992E9 ; 1.7396461663282135E11 ; 0.0
153 ; 4.2614460778132126E7 ; 1.2130922923128471E9 ; 6.664965501354679E9 ; 1.7517764836600314E11 ; 0.0
154 ; 4.258212964551462E7 ; 1.213152704073454E9 ; 6.707579962132812E9 ; 1.7639074065831598E11 ; 0.0
155 ; 4.254220136555184E7 ; 1.2132129662396977E9 ; 6.750162091778326E9 ; 1.7760389336238943E11 ; 0.0
156 ; 4.2511639200854965E7 ; 1.213273076615704E9 ; 6.792704293143878E9 ; 1.7881710632862912E11 ; 0.0
157 ; 4.248297977286911E7 ; 1.2133330330329628E9 ; 6.835215932344733E9 ; 1.800303794052448E11 ; 0.0
158 ; 4.243780913136304E7 ; 1.2133928333496761E9 ; 6.877698912117602E9 ; 1.8124371243827777E11 ; 0.0
159 ; 4.240795336577961E7 ; 1.21345247545013E9 ; 6.920136721248965E9 ; 1.8245710527162744E11 ; 0.0
160 ; 4.2378790183404714E7 ; 1.213511957244087E9 ; 6.962544674614745E9 ; 1.8367055774707758E11 ; 0.0
161 ; 4.234195985562119E7 ; 1.2135712766661983E9 ; 7.00492346479815E9 ; 1.8488406970432166E11 ; 0.0
162 ; 4.2305185010795504E7 ; 1.2136304316754394E9 ; 7.047265424653771E9 ; 1.8609764098098785E11 ; 0.0
163 ; 4.226971435484931E7 ; 1.2136894202545602E9 ; 7.089570609664567E9 ; 1.873112714126633E11 ; 0.0
164 ; 4.223588708349775E7 ; 1.2137482404095573E9 ; 7.131840324019416E9 ; 1.8852496083291785E11 ; 0.0
165 ; 4.219769076468232E7 ; 1.2138068901691628E9 ; 7.174076211102914E9 ; 1.897387090733274E11 ; 0.0
166 ; 4.2157564376620606E7 ; 1.2138653675843499E9 ; 7.216273901867597E9 ; 1.9095251596349655E11 ; 0.0
167 ; 4.212168591872878E7 ; 1.2139236707278554E9 ; 7.258431466244217E9 ; 1.921663813310809E11 ; 0.0
168 ; 4.208330728504841E7 ; 1.2139817976937194E9 ; 7.300553152162946E9 ; 1.9338030500180875E11 ; 0.0
169 ; 4.204860991842079E7 ; 1.214039746596837E9 ; 7.342636459447994E9 ; 1.9459428679950247E11 ; 0.0
170 ; 4.201437903624528E7 ; 1.2140975155725298E9 ; 7.384685069366415E9 ; 1.958083265460993E11 ; 0.0
171 ; 4.1984276161247514E7 ; 1.2141551027761264E9 ; 7.42669944840266E9 ; 1.9702242406167184E11 ; 0.0
172 ; 4.1937622368043914E7 ; 1.2142125063825607E9 ; 7.468683724563908E9 ; 1.9823657916444797E11 ; 0.0
173 ; 4.191404209332519E7 ; 1.2142697245859814E9 ; 7.5106213469319515E9 ; 1.9945079167083054E11 ; 0.0
174 ; 4.1888912238124125E7 ; 1.2143267555993752E9 ; 7.552535389025277E9 ; 2.006650613954165E11 ; 0.0
175 ; 4.186226222795033E7 ; 1.214383597654202E9 ; 7.594424301263401E9 ; 2.0187938815101587E11 ; 0.0
176 ; 4.1844344902239434E7 ; 1.2144402490000412E9 ; 7.636286563491351E9 ; 2.0309377174867007E11 ; 0.0
177 ; 4.182222302150019E7 ; 1.2144967079042518E9 ; 7.678130908393591E9 ; 2.043082119976701E11 ; 0.0
178 ; 4.17900679245213E7 ; 1.2145529726516414E9 ; 7.7199531314150915E9 ; 2.0552270870557437E11 ; 0.0
179 ; 4.176919096084336E7 ; 1.2146090415441458E9 ; 7.761743199339613E9 ; 2.06737261678226E11 ; 0.0
180 ; 4.174294723336327E7 ; 1.2146649129005227E9 ; 7.803512390300456E9 ; 2.0795187071977017E11 ; 0.0
181 ; 4.17293104923842E7 ; 1.2147205850560486E9 ; 7.845255337533819E9 ; 2.091665356326707E11 ; 0.0
182 ; 4.170994301342126E7 ; 1.2147760563622315E9 ; 7.886984648026203E9 ; 2.1038125621772675E11 ; 0.0
183 ; 4.168341064369069E7 ; 1.2148313251865308E9 ; 7.928694591039624E9 ; 2.11596032274089E11 ; 0.0
184 ; 4.166573364849275E7 ; 1.2148863899120848E9 ; 7.970378001683315E9 ; 2.128108635992755E11 ; 0.0
185 ; 4.163572525397657E7 ; 1.214941248937449E9 ; 8.012043735331808E9 ; 2.140257499891876E11 ; 0.0
186 ; 4.161328760765131E7 ; 1.2149959006763406E9 ; 8.053679460585785E9 ; 2.1524069123812503E11 ; 0.0
187 ; 4.159294420836685E7 ; 1.2150503435573945E9 ; 8.095292748193437E9 ; 2.1645568713880136E11 ; 0.0
188 ; 4.1574807012525074E7 ; 1.215104576023922E9 ; 8.136885692401803E9 ; 2.1767073748235876E11 ; 0.0
189 ; 4.1547453581577346E7 ; 1.2151585965336826E9 ; 8.178460499414328E9 ; 2.188858420583827E11 ; 0.0
190 ; 4.152864042089242E7 ; 1.2152124035586584E9 ; 8.220007952995905E9 ; 2.2010100065491638E11 ; 0.0
191 ; 4.150467440656556E7 ; 1.2152659955848393E9 ; 8.261536593416798E9 ; 2.2131621305847504E11 ; 0.0
192 ; 4.148493481369597E7 ; 1.2153193711120121E9 ; 8.303041267823363E9 ; 2.2253147905405988E11 ; 0.0
193 ; 4.146034846844128E7 ; 1.2153725286535575E9 ; 8.344526202637059E9 ; 2.2374679842517188E11 ; 0.0
194 ; 4.143609747241335E7 ; 1.2154254667362545E9 ; 8.3859865511055E9 ; 2.2496217095382544E11 ; 0.0
195 ; 4.141123273347582E7 ; 1.215478183900088E9 ; 8.427422648577913E9 ; 2.261775964205617E11 ; 0.0
196 ; 4.138991917602153E7 ; 1.2155306786980658E9 ; 8.468833881311389E9 ; 2.273930746044618E11 ; 0.0
197 ; 4.13657268876511E7 ; 1.2155829496960382E9 ; 8.510223800487411E9 ; 2.2860860528315985E11 ; 0.0
