CSV File for the Network on Day 13
1 - Minute m 
2 - Power Consumed at minute m 
3 - Power Produced at minute m 
4 - Energy Consumed since the beginning of the day 
5 - Energy Produced since the beginning of the day 
6 - Energy Lost since the beginning of the day 
 
0 ; 3.841880708665917E7 ; 6.321218119538206E8 ; 0.0 ; 0.0 ; 0.0
1 ; 3.8456853922727026E7 ; 6.330151505195291E8 ; 3.841880708665917E7 ; 6.321218119538206E8 ; 0.0
2 ; 3.8506877974199586E7 ; 6.357629396303812E8 ; 7.68756610093862E7 ; 1.2651369624733496E9 ; 0.0
3 ; 3.8553435641429976E7 ; 6.403654014115074E8 ; 1.1538253898358577E8 ; 1.9008999021037307E9 ; 0.0
4 ; 3.860409196194425E7 ; 6.468227591176312E8 ; 1.5393597462501574E8 ; 2.541265303515238E9 ; 0.0
5 ; 3.867105252911596E7 ; 6.551352308577093E8 ; 1.9254006658696E8 ; 3.188088062632869E9 ; 0.0
6 ; 3.876952158831714E7 ; 6.65303022114744E8 ; 2.3121111911607593E8 ; 3.843223293490578E9 ; 0.0
7 ; 3.889813904679875E7 ; 6.773263174266396E8 ; 2.699806407043931E8 ; 4.508526315605322E9 ; 0.0
8 ; 3.9079412618497275E7 ; 6.912052718257895E8 ; 3.0887877975119185E8 ; 5.185852633031961E9 ; 0.0
9 ; 3.935980116442837E7 ; 7.069400028276391E8 ; 3.479581923696891E8 ; 5.877057904857751E9 ; 0.0
10 ; 3.9799699929397866E7 ; 7.245305838481274E8 ; 3.8731799353411746E8 ; 6.58399790768539E9 ; 0.0
11 ; 4.048537405865991E7 ; 7.439770398646761E8 ; 4.2711769346351534E8 ; 7.308528491533518E9 ; 0.0
12 ; 4.1588256449681446E7 ; 7.652793458998637E8 ; 4.6760306752217525E8 ; 8.052505531398194E9 ; 0.0
13 ; 4.265279651716716E7 ; 7.884374285377506E8 ; 5.091913239718567E8 ; 8.817784877298058E9 ; 0.0
14 ; 4.2781321305719055E7 ; 8.134511702628922E8 ; 5.518441204890239E8 ; 9.606222305835808E9 ; 0.0
15 ; 4.282610017434163E7 ; 8.403204160428944E8 ; 5.94625441794743E8 ; 1.04196734760987E10 ; 0.0
16 ; 4.2878052438424304E7 ; 8.690449813398535E8 ; 6.374515419690846E8 ; 1.1259993892141594E10 ; 0.0
17 ; 4.29258814240931E7 ; 8.996246606707667E8 ; 6.80329594407509E8 ; 1.2129038873481447E10 ; 0.0
18 ; 4.297730988894733E7 ; 9.320592359266775E8 ; 7.232554758316021E8 ; 1.3028663534152214E10 ; 0.0
19 ; 4.302568972719145E7 ; 9.663484838528624E8 ; 7.662327857205495E8 ; 1.3960722770078892E10 ; 0.0
20 ; 4.3071974042162836E7 ; 1.0024921823241907E9 ; 8.092584754477409E8 ; 1.4927071253931755E10 ; 0.0
21 ; 4.312219928965124E7 ; 1.0404901152672924E9 ; 8.523304494899037E8 ; 1.5929563436255945E10 ; 0.0
22 ; 4.317689735913944E7 ; 1.0803420762517412E9 ; 8.95452648779555E8 ; 1.6970053551523237E10 ; 0.0
23 ; 4.3221017806170195E7 ; 1.122047870884916E9 ; 9.386295461386944E8 ; 1.805039562777498E10 ; 0.0
24 ; 4.3271895296003476E7 ; 1.165607318203784E9 ; 9.818505639448646E8 ; 1.9172443498659893E10 ; 0.0
25 ; 4.333154507007161E7 ; 1.2031484966629322E9 ; 1.0251224592408681E9 ; 2.0338050816863678E10 ; 0.0
26 ; 4.336988975789251E7 ; 1.2031925403617134E9 ; 1.0684540043109397E9 ; 2.154119931352661E10 ; 0.0
27 ; 4.342809903163802E7 ; 1.2032379257803729E9 ; 1.1118238940688322E9 ; 2.2744391853888325E10 ; 0.0
28 ; 4.3475201599235885E7 ; 1.2032845265708802E9 ; 1.15525199310047E9 ; 2.3947629779668697E10 ; 0.0
29 ; 4.351410151158131E7 ; 1.2033322284611235E9 ; 1.1987271946997058E9 ; 2.515091430623958E10 ; 0.0
30 ; 4.356531071924019E7 ; 1.2033809283169165E9 ; 1.2422412962112873E9 ; 2.6354246534700703E10 ; 0.0
31 ; 4.3611045624161236E7 ; 1.203430533180402E9 ; 1.2858066069305274E9 ; 2.755762746301762E10 ; 0.0
32 ; 4.365456473311018E7 ; 1.2034809593251903E9 ; 1.3294176525546887E9 ; 2.876105799619802E10 ; 0.0
33 ; 4.3702412700237304E7 ; 1.2035321313542192E9 ; 1.373072217287799E9 ; 2.9964538955523212E10 ; 0.0
34 ; 4.37401729717486E7 ; 1.2035839813557687E9 ; 1.4167746299880362E9 ; 3.116807108687743E10 ; 0.0
35 ; 4.378226981341078E7 ; 1.2036364481255074E9 ; 1.4605148029597847E9 ; 3.23716550682332E10 ; 0.0
36 ; 4.382139984953566E7 ; 1.203689476457255E9 ; 1.5042970727731955E9 ; 3.3575291516358707E10 ; 0.0
37 ; 4.3858284816596635E7 ; 1.2037430165016804E9 ; 1.5481184726227312E9 ; 3.477898099281596E10 ; 0.0
38 ; 4.388960853228967E7 ; 1.2037970231899939E9 ; 1.591976757439328E9 ; 3.598272400931764E10 ; 0.0
39 ; 4.392690696954217E7 ; 1.203851455718402E9 ; 1.6358663659716177E9 ; 3.718652103250764E10 ; 0.0
40 ; 4.396215232044378E7 ; 1.2039062770884736E9 ; 1.67979327294116E9 ; 3.8390372488226036E10 ; 0.0
41 ; 4.398999387435608E7 ; 1.2039614536983275E9 ; 1.7237554252616038E9 ; 3.959427876531451E10 ; 0.0
42 ; 4.4028414026284434E7 ; 1.2040169549796262E9 ; 1.7677454191359599E9 ; 4.079824021901283E10 ; 0.0
43 ; 4.405811964710361E7 ; 1.2040727530755694E9 ; 1.8117738331622443E9 ; 4.200225717399246E10 ; 0.0
44 ; 4.407814381243329E7 ; 1.204128822555418E9 ; 1.8558319528093479E9 ; 4.320632992706803E10 ; 0.0
45 ; 4.410868131360249E7 ; 1.2041851401614423E9 ; 1.899910096621781E9 ; 4.441045874962345E10 ; 0.0
46 ; 4.412297305923707E7 ; 1.2042416845845757E9 ; 1.9440187779353836E9 ; 4.56146438897849E10 ; 0.0
47 ; 4.4141693855191715E7 ; 1.2042984362654333E9 ; 1.9881417509946206E9 ; 4.681888557436948E10 ; 0.0
48 ; 4.4162403176468916E7 ; 1.2043553772177212E9 ; 2.0322834448498123E9 ; 4.802318401063491E10 ; 0.0
49 ; 4.417916121513151E7 ; 1.2044124908713875E9 ; 2.076445848026281E9 ; 4.922753938785263E10 ; 0.0
50 ; 4.418832146605845E7 ; 1.2044697619331837E9 ; 2.1206250092414126E9 ; 5.0431951878724014E10 ; 0.0
51 ; 4.420500516661562E7 ; 1.204527176262573E9 ; 2.164813330707471E9 ; 5.1636421640657196E10 ; 0.0
52 ; 4.421589600439807E7 ; 1.2045847207611754E9 ; 2.2090183358740864E9 ; 5.284094881691977E10 ; 0.0
53 ; 4.422813487579923E7 ; 1.2046423832741516E9 ; 2.2532342318784842E9 ; 5.404553353768095E10 ; 0.0
54 ; 4.424599681615784E7 ; 1.2047001525021343E9 ; 2.2974623667542834E9 ; 5.52501759209551E10 ; 0.0
55 ; 4.424731954839293E7 ; 1.2047580179224737E9 ; 2.3417083635704412E9 ; 5.645487607345724E10 ; 0.0
56 ; 4.426204702513241E7 ; 1.2048159697187197E9 ; 2.385955683118834E9 ; 5.765963409137971E10 ; 0.0
57 ; 4.426566771957804E7 ; 1.2048739987174025E9 ; 2.430217730143966E9 ; 5.886445006109843E10 ; 0.0
58 ; 4.428112474825733E7 ; 1.2049320963312716E9 ; 2.4744833978635445E9 ; 6.006932405981583E10 ; 0.0
59 ; 4.428730160308958E7 ; 1.2049902545082755E9 ; 2.5187645226118016E9 ; 6.1274256156147095E10 ; 0.0
60 ; 4.429910166420641E7 ; 1.2050484656856277E9 ; 2.5630518242148914E9 ; 6.247924641065537E10 ; 0.0
61 ; 4.4299483481483296E7 ; 1.2051067227484124E9 ; 2.607350925879098E9 ; 6.3684294876341E10 ; 0.0
62 ; 4.4308804430377856E7 ; 1.2051650189922159E9 ; 2.6516504093605814E9 ; 6.488940159908942E10 ; 0.0
63 ; 4.431680601028282E7 ; 1.2052233480893593E9 ; 2.6959592137909594E9 ; 6.6094566618081635E10 ; 0.0
64 ; 4.432953549402575E7 ; 1.205281704058342E9 ; 2.7402760198012424E9 ; 6.729978996617099E10 ; 0.0
65 ; 4.432872972442364E7 ; 1.2053400812361522E9 ; 2.784605555295268E9 ; 6.850507167022933E10 ; 0.0
66 ; 4.433994285689182E7 ; 1.2053984742531495E9 ; 2.8289342850196915E9 ; 6.971041175146548E10 ; 0.0
67 ; 4.435004817921598E7 ; 1.2054568780102468E9 ; 2.873274227876583E9 ; 7.091581022571863E10 ; 0.0
68 ; 4.435489715735024E7 ; 1.2055152876581593E9 ; 2.917624276055799E9 ; 7.212126710372888E10 ; 0.0
69 ; 4.4357562883939676E7 ; 1.205573698578507E9 ; 2.961979173213149E9 ; 7.332678239138704E10 ; 0.0
70 ; 4.436288280725059E7 ; 1.205632106366589E9 ; 3.006336736097089E9 ; 7.453235608996555E10 ; 0.0
71 ; 4.436038094364633E7 ; 1.2056905068156588E9 ; 3.0506996189043393E9 ; 7.573798819633214E10 ; 0.0
72 ; 4.436869724286686E7 ; 1.2057488959025564E9 ; 3.0950599998479857E9 ; 7.69436787031478E10 ; 0.0
73 ; 4.4368216929900855E7 ; 1.2058072697745633E9 ; 3.1394286970908527E9 ; 7.814942759905035E10 ; 0.0
74 ; 4.437100766552132E7 ; 1.2058656247373672E9 ; 3.1837969140207534E9 ; 7.935523486882492E10 ; 0.0
75 ; 4.437443597800202E7 ; 1.2059239572440217E9 ; 3.2281679216862745E9 ; 8.056110049356229E10 ; 0.0
76 ; 4.437258217568649E7 ; 1.20598226388482E9 ; 3.2725423576642766E9 ; 8.17670244508063E10 ; 0.0
77 ; 4.437865443599124E7 ; 1.2060405413779883E9 ; 3.316914939839963E9 ; 8.297300671469113E10 ; 0.0
78 ; 4.4365434093382664E7 ; 1.2060987865611258E9 ; 3.3612935942759542E9 ; 8.417904725606912E10 ; 0.0
79 ; 4.435810170152313E7 ; 1.2061569963833246E9 ; 3.405659028369337E9 ; 8.538514604263025E10 ; 0.0
80 ; 4.434069548956044E7 ; 1.2062151678979125E9 ; 3.4500171300708604E9 ; 8.659130303901358E10 ; 0.0
81 ; 4.433188039018388E7 ; 1.2062732982557511E9 ; 3.494357825560421E9 ; 8.77975182069115E10 ; 0.0
82 ; 4.431340902078866E7 ; 1.2063313846990547E9 ; 3.538689705950605E9 ; 8.900379150516725E10 ; 0.0
83 ; 4.429798675918098E7 ; 1.2063894245556755E9 ; 3.5830031149713936E9 ; 9.02101228898663E10 ; 0.0
84 ; 4.429130770881208E7 ; 1.2064474152338185E9 ; 3.6273011017305746E9 ; 9.141651231442198E10 ; 0.0
85 ; 4.427173973127047E7 ; 1.206505354217148E9 ; 3.671592409439387E9 ; 9.26229597296558E10 ; 0.0
86 ; 4.42510586617746E7 ; 1.2065632390602543E9 ; 3.715864149170657E9 ; 9.382946508387296E10 ; 0.0
87 ; 4.423967484219154E7 ; 1.206621067384449E9 ; 3.760115207832432E9 ; 9.503602832293321E10 ; 0.0
88 ; 4.422132311993006E7 ; 1.2066788368738642E9 ; 3.8043548826746235E9 ; 9.624264939031766E10 ; 0.0
89 ; 4.420381894955586E7 ; 1.2067365452718272E9 ; 3.8485762057945538E9 ; 9.744932822719153E10 ; 0.0
90 ; 4.418747141528272E7 ; 1.2067941903774915E9 ; 3.8927800247441096E9 ; 9.865606477246335E10 ; 0.0
91 ; 4.417313562612366E7 ; 1.206851770042703E9 ; 3.9369674961593924E9 ; 9.986285896284084E10 ; 0.0
92 ; 4.4153613026937805E7 ; 1.2069092821690803E9 ; 3.981140631785516E9 ; 1.0106971073288354E11 ; 0.0
93 ; 4.413900282459671E7 ; 1.206966724705299E9 ; 4.0252942448124537E9 ; 1.0227662001505263E11 ; 0.0
94 ; 4.4119277019620284E7 ; 1.2070240956445534E9 ; 4.0694332476370506E9 ; 1.0348358673975792E11 ; 0.0
95 ; 4.4103162268364504E7 ; 1.2070813930221934E9 ; 4.113552524656671E9 ; 1.0469061083540247E11 ; 0.0
96 ; 4.407856476138346E7 ; 1.2071386149135163E9 ; 4.1576556869250355E9 ; 1.0589769222842465E11 ; 0.0
97 ; 4.40597670923879E7 ; 1.2071957594317012E9 ; 4.201734251686419E9 ; 1.0710483084333817E11 ; 0.0
98 ; 4.404383333561335E7 ; 1.2072528247258837E9 ; 4.2457940187788067E9 ; 1.0831202660276987E11 ; 0.0
99 ; 4.4021972258111395E7 ; 1.207309808979348E9 ; 4.28983785211442E9 ; 1.0951927942749576E11 ; 0.0
100 ; 4.3994635001225054E7 ; 1.2073667104078388E9 ; 4.333859824372531E9 ; 1.1072658923647511E11 ; 0.0
101 ; 4.397648939700806E7 ; 1.2074235272579799E9 ; 4.377854459373756E9 ; 1.1193395594688295E11 ; 0.0
102 ; 4.395071851941051E7 ; 1.207480257805789E9 ; 4.421830948770764E9 ; 1.1314137947414093E11 ; 0.0
103 ; 4.392510214654113E7 ; 1.207536900355288E9 ; 4.4657816672901745E9 ; 1.1434885973194672E11 ; 0.0
104 ; 4.391085389845376E7 ; 1.2075934532371984E9 ; 4.509706769436716E9 ; 1.15556396632302E11 ; 0.0
105 ; 4.388203456958964E7 ; 1.2076499148077137E9 ; 4.55361762333517E9 ; 1.167639900855392E11 ; 0.0
106 ; 4.386546712287899E7 ; 1.2077062834473503E9 ; 4.597499657904759E9 ; 1.1797164000034691E11 ; 0.0
107 ; 4.383676454442447E7 ; 1.2077625575598645E9 ; 4.641365125027638E9 ; 1.1917934628379427E11 ; 0.0
108 ; 4.381199926803073E7 ; 1.207818735571235E9 ; 4.6852018895720625E9 ; 1.2038710884135413E11 ; 0.0
109 ; 4.378730869730887E7 ; 1.2078748159287052E9 ; 4.729013888840094E9 ; 1.2159492757692535E11 ; 0.0
110 ; 4.376460931945041E7 ; 1.2079307970998836E9 ; 4.772801197537402E9 ; 1.2280280239285406E11 ; 0.0
111 ; 4.373343437134136E7 ; 1.2079866775718918E9 ; 4.816565806856853E9 ; 1.2401073318995395E11 ; 0.0
112 ; 4.371457525243068E7 ; 1.208042455850568E9 ; 4.860299241228194E9 ; 1.2521871986752585E11 ; 0.0
113 ; 4.3683414832282715E7 ; 1.2080981304597108E9 ; 4.904013816480625E9 ; 1.2642676232337642E11 ; 0.0
114 ; 4.365345976202783E7 ; 1.2081536999403691E9 ; 4.947697231312908E9 ; 1.2763486045383614E11 ; 0.0
115 ; 4.363018434720158E7 ; 1.2082091628501713E9 ; 4.991350691074936E9 ; 1.288430141537765E11 ; 0.0
116 ; 4.359924973308259E7 ; 1.20826451776269E9 ; 5.034980875422137E9 ; 1.3005122331662668E11 ; 0.0
117 ; 4.35677440558875E7 ; 1.2083197632668474E9 ; 5.07858012515522E9 ; 1.3125948783438937E11 ; 0.0
118 ; 4.353824835616468E7 ; 1.2083748979663458E9 ; 5.122147869211107E9 ; 1.3246780759765622E11 ; 0.0
119 ; 4.351702517731114E7 ; 1.2084299204791384E9 ; 5.165686117567272E9 ; 1.3367618249562256E11 ; 0.0
120 ; 4.348597034297213E7 ; 1.2084848294369204E9 ; 5.209203142744583E9 ; 1.348846124161017E11 ; 0.0
121 ; 4.345461757875276E7 ; 1.2085396234846535E9 ; 5.252689113087555E9 ; 1.3609309724553862E11 ; 0.0
122 ; 4.3422453767904155E7 ; 1.2085943012801132E9 ; 5.296143730666307E9 ; 1.3730163686902327E11 ; 0.0
123 ; 4.3391284751594275E7 ; 1.208648861493462E9 ; 5.339566184434212E9 ; 1.3851023117030338E11 ; 0.0
124 ; 4.335304527405736E7 ; 1.208703302806844E9 ; 5.382957469185806E9 ; 1.3971888003179684E11 ; 0.0
125 ; 4.333110148659369E7 ; 1.2087576239140005E9 ; 5.426310514459864E9 ; 1.409275833346037E11 ; 0.0
126 ; 4.3293857756417006E7 ; 1.2088118235199084E9 ; 5.469641615946457E9 ; 1.421363409585177E11 ; 0.0
127 ; 4.326320986451991E7 ; 1.2088659003404353E9 ; 5.512935473702874E9 ; 1.433451527820376E11 ; 0.0
128 ; 4.322628121768829E7 ; 1.2089198531020112E9 ; 5.556198683567394E9 ; 1.4455401868237802E11 ; 0.0
129 ; 4.3187051300956E7 ; 1.2089736805413222E9 ; 5.599424964785083E9 ; 1.4576293853548004E11 ; 0.0
130 ; 4.315151979761095E7 ; 1.2090273814050138E9 ; 5.642612016086039E9 ; 1.4697191221602136E11 ; 0.0
131 ; 4.310445751831318E7 ; 1.209080954449415E9 ; 5.68576353588365E9 ; 1.4818093959742636E11 ; 0.0
132 ; 4.305445850005303E7 ; 1.2091343984402714E9 ; 5.728867993401963E9 ; 1.4939002055187576E11 ; 0.0
133 ; 4.301627383947209E7 ; 1.209187712152496E9 ; 5.771922451902017E9 ; 1.5059915495031604E11 ; 0.0
134 ; 4.29612703283773E7 ; 1.2092408943699305E9 ; 5.814938725741488E9 ; 1.5180834266246854E11 ; 0.0
135 ; 4.290835121577166E7 ; 1.2092939438851187E9 ; 5.857899996069866E9 ; 1.5301758355683847E11 ; 0.0
136 ; 4.286410223790577E7 ; 1.2093468594990911E9 ; 5.900808347285638E9 ; 1.542268775007236E11 ; 0.0
137 ; 4.2809396976077914E7 ; 1.2093996400211625E9 ; 5.943672449523543E9 ; 1.554362243602227E11 ; 0.0
138 ; 4.275972033333853E7 ; 1.2094522842687356E9 ; 5.986481846499621E9 ; 1.5664562400024384E11 ; 0.0
139 ; 4.270844287228632E7 ; 1.2095047910671184E9 ; 6.02924156683296E9 ; 1.5785507628451257E11 ; 0.0
140 ; 4.266554760657363E7 ; 1.2095571592493477E9 ; 6.071950009705246E9 ; 1.5906458107557968E11 ; 0.0
141 ; 4.260546529291646E7 ; 1.2096093876560225E9 ; 6.11461555731182E9 ; 1.6027413823482904E11 ; 0.0
142 ; 4.255584095437634E7 ; 1.209661475135147E9 ; 6.157221022604736E9 ; 1.6148374762248508E11 ; 0.0
143 ; 4.250552127897397E7 ; 1.2097134205419776E9 ; 6.199776863559113E9 ; 1.6269340909762024E11 ; 0.0
144 ; 4.24506571281596E7 ; 1.2097652227388813E9 ; 6.242282384838086E9 ; 1.6390312251816223E11 ; 0.0
145 ; 4.241222091038913E7 ; 1.2098168805951984E9 ; 6.284733041966246E9 ; 1.6511288774090112E11 ; 0.0
146 ; 4.237454531102435E7 ; 1.2098683929871132E9 ; 6.327145262876635E9 ; 1.663227046214963E11 ; 0.0
147 ; 4.233671915895852E7 ; 1.2099197587975304E9 ; 6.369519808187659E9 ; 1.6753257301448343E11 ; 0.0
148 ; 4.2302007963250294E7 ; 1.2099709769159572E9 ; 6.411856527346618E9 ; 1.6874249277328094E11 ; 0.0
149 ; 4.2266984159586735E7 ; 1.210022046238393E9 ; 6.454158535309868E9 ; 1.699524637501969E11 ; 0.0
150 ; 4.2227807308340654E7 ; 1.210072965667222E9 ; 6.496425519469455E9 ; 1.711624857964353E11 ; 0.0
151 ; 4.218958478839535E7 ; 1.2101237341111116E9 ; 6.538653326777796E9 ; 1.7237255876210254E11 ; 0.0
152 ; 4.214973021932815E7 ; 1.2101743504849179E9 ; 6.580842911566191E9 ; 1.7358268249621365E11 ; 0.0
153 ; 4.211995309837052E7 ; 1.2102248137095914E9 ; 6.622992641785519E9 ; 1.7479285684669858E11 ; 0.0
154 ; 4.207783307857736E7 ; 1.2102751227120929E9 ; 6.665112594883889E9 ; 1.7600308166040817E11 ; 0.0
155 ; 4.204067631243065E7 ; 1.2103252764253082E9 ; 6.707190427962466E9 ; 1.7721335678312027E11 ; 0.0
156 ; 4.199557414800933E7 ; 1.210375273787971E9 ; 6.749231104274897E9 ; 1.784236820595456E11 ; 0.0
157 ; 4.195777513567384E7 ; 1.2104251137445858E9 ; 6.791226678422906E9 ; 1.7963405733333356E11 ; 0.0
158 ; 4.192223417664331E7 ; 1.2104747952453582E9 ; 6.833184453558579E9 ; 1.8084448244707816E11 ; 0.0
159 ; 4.1883523091491416E7 ; 1.210524317246127E9 ; 6.875106687735223E9 ; 1.8205495724232352E11 ; 0.0
160 ; 4.1842252255652644E7 ; 1.2105736787082975E9 ; 6.9169902108267145E9 ; 1.8326548155956964E11 ; 0.0
161 ; 4.180313687920403E7 ; 1.2106228785987825E9 ; 6.958832463082367E9 ; 1.8447605523827792E11 ; 0.0
162 ; 4.176583370109986E7 ; 1.2106719158899431E9 ; 7.000635599961571E9 ; 1.856866781168767E11 ; 0.0
163 ; 4.172949981730919E7 ; 1.2107207895595324E9 ; 7.04240143366267E9 ; 1.8689735003276666E11 ; 0.0
164 ; 4.16862506746283E7 ; 1.2107694985906432E9 ; 7.0841309334799795E9 ; 1.881080708223262E11 ; 0.0
165 ; 4.164975025955187E7 ; 1.2108180419716587E9 ; 7.125817184154608E9 ; 1.8931884032091684E11 ; 0.0
166 ; 4.160196127642582E7 ; 1.210866418696203E9 ; 7.16746693441416E9 ; 1.905296583628885E11 ; 0.0
167 ; 4.156620857837595E7 ; 1.2109146277630978E9 ; 7.209068895690585E9 ; 1.917405247815847E11 ; 0.0
168 ; 4.152593957299184E7 ; 1.2109626681763182E9 ; 7.250635104268961E9 ; 1.9295143940934778E11 ; 0.0
169 ; 4.148153973849626E7 ; 1.211010538944952E9 ; 7.292161043841952E9 ; 1.941624020775241E11 ; 0.0
170 ; 4.144460547409356E7 ; 1.211058239083162E9 ; 7.333642583580448E9 ; 1.9537341261646906E11 ; 0.0
171 ; 4.140025749820579E7 ; 1.2111057676101484E9 ; 7.375087189054542E9 ; 1.9658447085555222E11 ; 0.0
172 ; 4.135771482224795E7 ; 1.2111531235501134E9 ; 7.416487446552748E9 ; 1.9779557662316235E11 ; 0.0
173 ; 4.132202260688222E7 ; 1.2112003059322302E9 ; 7.457845161374995E9 ; 1.9900672974671246E11 ; 0.0
174 ; 4.129734589743299E7 ; 1.21124731379061E9 ; 7.499167183981877E9 ; 2.0021793005264468E11 ; 0.0
175 ; 4.1271054568309344E7 ; 1.2112941461642735E9 ; 7.540464529879311E9 ; 2.014291773664353E11 ; 0.0
176 ; 4.1251438854836166E7 ; 1.2113408020971222E9 ; 7.58173558444762E9 ; 2.0264047151259958E11 ; 0.0
177 ; 4.121667740379155E7 ; 1.2113872806379128E9 ; 7.622987023302457E9 ; 2.0385181231469672E11 ; 0.0
178 ; 4.119866267572952E7 ; 1.2114335808402321E9 ; 7.664203700706248E9 ; 2.0506319959533463E11 ; 0.0
179 ; 4.117163709390197E7 ; 1.2114797017624724E9 ; 7.705402363381978E9 ; 2.0627463317617487E11 ; 0.0
180 ; 4.114434889932072E7 ; 1.211525642467811E9 ; 7.74657400047588E9 ; 2.0748611287793735E11 ; 0.0
181 ; 4.111660198495357E7 ; 1.211571402024188E9 ; 7.7877183493752E9 ; 2.0869763852040515E11 ; 0.0
182 ; 4.110384637591136E7 ; 1.2116169795042877E9 ; 7.828834951360154E9 ; 2.0990920992242935E11 ; 0.0
183 ; 4.107441024130619E7 ; 1.2116623739855185E9 ; 7.869938797736066E9 ; 2.1112082690193365E11 ; 0.0
184 ; 4.104822243294215E7 ; 1.2117075845499973E9 ; 7.911013207977372E9 ; 2.1233248927591916E11 ; 0.0
185 ; 4.1024899593920514E7 ; 1.2117526102845325E9 ; 7.952061430410315E9 ; 2.1354419686046915E11 ; 0.0
186 ; 4.099779871391709E7 ; 1.2117974502806082E9 ; 7.993086330004235E9 ; 2.147559494707537E11 ; 0.0
187 ; 4.096785733215815E7 ; 1.2118421036343708E9 ; 8.034084128718152E9 ; 2.159677469210343E11 ; 0.0
188 ; 4.0944608780356236E7 ; 1.2118865694466152E9 ; 8.07505198605031E9 ; 2.1717958902466867E11 ; 0.0
189 ; 4.092086442083502E7 ; 1.2119308468227727E9 ; 8.115996594830667E9 ; 2.183914755941153E11 ; 0.0
190 ; 4.090300237589636E7 ; 1.2119749348728995E9 ; 8.156917459251501E9 ; 2.1960340644093808E11 ; 0.0
191 ; 4.087250673025689E7 ; 1.2120188327116656E9 ; 8.197820461627398E9 ; 2.2081538137581097E11 ; 0.0
192 ; 4.0847486457171425E7 ; 1.2120625394583454E9 ; 8.238692968357655E9 ; 2.2202740020852264E11 ; 0.0
193 ; 4.0820333538922995E7 ; 1.2121060542368093E9 ; 8.279540454814826E9 ; 2.23239462747981E11 ; 0.0
194 ; 4.079357458548189E7 ; 1.2121493761755123E9 ; 8.320360788353749E9 ; 2.244515688022178E11 ; 0.0
195 ; 4.076999613116737E7 ; 1.2121925044074903E9 ; 8.361154362939231E9 ; 2.256637181783933E11 ; 0.0
196 ; 4.074616078604721E7 ; 1.2122354380703516E9 ; 8.401924359070398E9 ; 2.268759106828008E11 ; 0.0
