CSV File for the Network on Day 353
1 - Minute m 
2 - Power Consumed at minute m 
3 - Power Produced at minute m 
4 - Energy Consumed since the beginning of the day 
5 - Energy Produced since the beginning of the day 
6 - Energy Lost since the beginning of the day 
 
0 ; 3.8567712500803344E7 ; 6.349594460065123E8 ; 0.0 ; 0.0 ; 0.0
1 ; 3.8607328167355E7 ; 6.358702090496674E8 ; 3.8567712500803344E7 ; 6.349594460065123E8 ; 0.0
2 ; 3.864668176186261E7 ; 6.386343677393485E8 ; 7.717504066815835E7 ; 1.2708296550561795E9 ; 0.0
3 ; 3.869432367588161E7 ; 6.432519390838614E8 ; 1.1582172243002096E8 ; 1.909464022795528E9 ; 0.0
4 ; 3.875334332828389E7 ; 6.497229383355163E8 ; 1.5451604610590255E8 ; 2.5527159618793893E9 ; 0.0
5 ; 3.882379602859962E7 ; 6.580473789028084E8 ; 1.9326938943418646E8 ; 3.2024389002149057E9 ; 0.0
6 ; 3.8914569870278716E7 ; 6.682252722716757E8 ; 2.3209318546278608E8 ; 3.860486279117714E9 ; 0.0
7 ; 3.903971321799447E7 ; 6.802566279368954E8 ; 2.710077553330648E8 ; 4.52871155138939E9 ; 0.0
8 ; 3.923186381205566E7 ; 6.941414533445677E8 ; 3.1004746855105925E8 ; 5.208968179326285E9 ; 0.0
9 ; 3.951246630460088E7 ; 7.098797538464999E8 ; 3.492793323631149E8 ; 5.903109632670853E9 ; 0.0
10 ; 3.994199513612809E7 ; 7.274715326671387E8 ; 3.887917986677158E8 ; 6.612989386517353E9 ; 0.0
11 ; 4.063130521232305E7 ; 7.46916790883537E8 ; 4.2873379380384386E8 ; 7.340460919184492E9 ; 0.0
12 ; 4.173735739817996E7 ; 7.682155274186419E8 ; 4.693650990161669E8 ; 8.087377710068029E9 ; 0.0
13 ; 4.2807563338572145E7 ; 7.913677390480064E8 ; 5.111024564143469E8 ; 8.855593237486671E9 ; 0.0
14 ; 4.292623584750688E7 ; 8.163734204198241E8 ; 5.53910019752919E8 ; 9.646960976534678E9 ; 0.0
15 ; 4.297845069224559E7 ; 8.432325640879935E8 ; 5.968362556004258E8 ; 1.0463334396954502E10 ; 0.0
16 ; 4.3030259184280336E7 ; 8.719451605577384E8 ; 6.398147062926714E8 ; 1.1306566961042496E10 ; 0.0
17 ; 4.3084983824519984E7 ; 9.025111983431206E8 ; 6.828449654769518E8 ; 1.2178512121600235E10 ; 0.0
18 ; 4.3122551745999925E7 ; 9.349306640356448E8 ; 7.259299493014718E8 ; 1.3081023319943356E10 ; 0.0
19 ; 4.3181784991018474E7 ; 9.692035423830006E8 ; 7.690525010474718E8 ; 1.4015953983979E10 ; 0.0
20 ; 4.3233282751450844E7 ; 1.0053298163768824E9 ; 8.122342860384903E8 ; 1.4985157526362001E10 ; 0.0
21 ; 4.327567586642092E7 ; 1.0433094673487363E9 ; 8.554675687899412E8 ; 1.5990487342738884E10 ; 0.0
22 ; 4.3333861810416445E7 ; 1.0831424750722175E9 ; 8.98743244656362E8 ; 1.703379681008762E10 ; 0.0
23 ; 4.338770906118764E7 ; 1.1248288178711138E9 ; 9.420771064667785E8 ; 1.8116939285159836E10 ; 0.0
24 ; 4.344102488043794E7 ; 1.168368472731464E9 ; 9.854648155279661E8 ; 1.924176810303095E10 ; 0.0
25 ; 4.348583868204919E7 ; 1.2058896608057365E9 ; 1.0289058404084041E9 ; 2.0410136575762413E10 ; 0.0
26 ; 4.353453098435813E7 ; 1.2059136437510164E9 ; 1.0723916790904533E9 ; 2.161602623656815E10 ; 0.0
27 ; 4.357914216857797E7 ; 1.205939010995821E9 ; 1.1159262100748115E9 ; 2.2821939880319164E10 ; 0.0
28 ; 4.3636986684225306E7 ; 1.2059657353376245E9 ; 1.1595053522433894E9 ; 2.4027878891314987E10 ; 0.0
29 ; 4.368117551357831E7 ; 1.2059937888177154E9 ; 1.2031423389276147E9 ; 2.523384462665261E10 ; 0.0
30 ; 4.372740589915941E7 ; 1.2060231428341675E9 ; 1.246823514441193E9 ; 2.6439838415470325E10 ; 0.0
31 ; 4.3776968468259156E7 ; 1.2060537682515965E9 ; 1.2905509203403525E9 ; 2.7645861558304493E10 ; 0.0
32 ; 4.381861232671837E7 ; 1.2060856355070055E9 ; 1.3343278888086116E9 ; 2.885191532655609E10 ; 0.0
33 ; 4.3860288388623565E7 ; 1.2061187147111232E9 ; 1.37814650113533E9 ; 3.0058000962063095E10 ; 0.0
34 ; 4.3917663540826745E7 ; 1.2061529757447624E9 ; 1.4220067895239534E9 ; 3.126411967677422E10 ; 0.0
35 ; 4.395091008355068E7 ; 1.2061883883498113E9 ; 1.4659244530647802E9 ; 3.2470272652518982E10 ; 0.0
36 ; 4.398886911666345E7 ; 1.2062249222145832E9 ; 1.509875363148331E9 ; 3.3676461040868793E10 ; 0.0
37 ; 4.4024833074511044E7 ; 1.2062625470533311E9 ; 1.5538642322649944E9 ; 3.4882685963083374E10 ; 0.0
38 ; 4.405971097979783E7 ; 1.2063012326798272E9 ; 1.5978890653395054E9 ; 3.60889485101367E10 ; 0.0
39 ; 4.4104444739956975E7 ; 1.2063409490749764E9 ; 1.6419487763193033E9 ; 3.729524974281653E10 ; 0.0
40 ; 4.413850300565013E7 ; 1.2063816664485044E9 ; 1.6860532210592604E9 ; 3.85015906918915E10 ; 0.0
41 ; 4.4162329121371694E7 ; 1.2064233552948194E9 ; 1.7301917240649104E9 ; 3.9707972358340004E10 ; 0.0
42 ; 4.419964185387853E7 ; 1.2064659864431949E9 ; 1.7743540531862822E9 ; 4.091439571363483E10 ; 0.0
43 ; 4.422570595688123E7 ; 1.2065095311024652E9 ; 1.8185536950401607E9 ; 4.212086170007802E10 ; 0.0
44 ; 4.424981958530584E7 ; 1.206553960900455E9 ; 1.862779400997042E9 ; 4.332737123118048E10 ; 0.0
45 ; 4.42790235812236E7 ; 1.2065992479183984E9 ; 1.9070292205823479E9 ; 4.453392519208093E10 ; 0.0
46 ; 4.43049400047991E7 ; 1.2066453647206106E9 ; 1.9513082441635714E9 ; 4.574052443999933E10 ; 0.0
47 ; 4.432495448637043E7 ; 1.206692284379705E9 ; 1.9956131841683705E9 ; 4.694716980471994E10 ; 0.0
48 ; 4.434567841936471E7 ; 1.2067399804976351E9 ; 2.0399381386547408E9 ; 4.815386208909965E10 ; 0.0
49 ; 4.4363967920191124E7 ; 1.2067884272228715E9 ; 2.0842838170741055E9 ; 4.936060206959728E10 ; 0.0
50 ; 4.437502489278134E7 ; 1.2068375992639942E9 ; 2.1286477849942966E9 ; 5.056739049682015E10 ; 0.0
51 ; 4.438606022358966E7 ; 1.206887471899998E9 ; 2.173022809887078E9 ; 5.1774228096084145E10 ; 0.0
52 ; 4.440827614854715E7 ; 1.2069380209875927E9 ; 2.217408870110667E9 ; 5.2981115567984146E10 ; 0.0
53 ; 4.441290845049913E7 ; 1.2069892229657722E9 ; 2.2618171462592144E9 ; 5.418805358897174E10 ; 0.0
54 ; 4.442181467429283E7 ; 1.2070410548579116E9 ; 2.3062300547097135E9 ; 5.5395042811937515E10 ; 0.0
55 ; 4.4438642275323026E7 ; 1.2070934942716494E9 ; 2.3506518693840065E9 ; 5.6602083866795425E10 ; 0.0
56 ; 4.4450423125389725E7 ; 1.2071465193967843E9 ; 2.3950905116593294E9 ; 5.780917736106708E10 ; 0.0
57 ; 4.446694159980488E7 ; 1.2072001090014136E9 ; 2.439540934784719E9 ; 5.901632388046386E10 ; 0.0
58 ; 4.4475928215344846E7 ; 1.2072542424265215E9 ; 2.484007876384524E9 ; 6.022352398946527E10 ; 0.0
59 ; 4.4482926268748194E7 ; 1.2073088995792093E9 ; 2.528483804599869E9 ; 6.143077823189179E10 ; 0.0
60 ; 4.4496263617242955E7 ; 1.207364060924748E9 ; 2.572966730868617E9 ; 6.2638087131471E10 ; 0.0
61 ; 4.451099179990457E7 ; 1.2074197074776194E9 ; 2.61746299448586E9 ; 6.384545119239575E10 ; 0.0
62 ; 4.451030349767153E7 ; 1.2074758207916975E9 ; 2.661973986285764E9 ; 6.5052870899873375E10 ; 0.0
63 ; 4.4522941185230866E7 ; 1.2075323829497077E9 ; 2.706484289783436E9 ; 6.626034672066507E10 ; 0.0
64 ; 4.45310707571133E7 ; 1.207589376552091E9 ; 2.7510072309686666E9 ; 6.746787910361478E10 ; 0.0
65 ; 4.454418413062122E7 ; 1.207646784705389E9 ; 2.79553830172578E9 ; 6.867546848016687E10 ; 0.0
66 ; 4.455051611425827E7 ; 1.2077045910102491E9 ; 2.8400824858564014E9 ; 6.988311526487225E10 ; 0.0
67 ; 4.4563599269315876E7 ; 1.207762779549148E9 ; 2.8846330019706597E9 ; 7.10908198558825E10 ; 0.0
68 ; 4.456806022322683E7 ; 1.2078213348739107E9 ; 2.9291966012399755E9 ; 7.229858263543166E10 ; 0.0
69 ; 4.457034215118353E7 ; 1.2078802419931011E9 ; 2.9737646614632025E9 ; 7.350640397030557E10 ; 0.0
70 ; 4.45774196770576E7 ; 1.2079394863593547E9 ; 3.018335003614386E9 ; 7.471428421229868E10 ; 0.0
71 ; 4.458143039572539E7 ; 1.2079990538567E9 ; 3.062912423291444E9 ; 7.592222369865804E10 ; 0.0
72 ; 4.458738889869279E7 ; 1.2080589307879298E9 ; 3.107493853687169E9 ; 7.713022275251474E10 ; 0.0
73 ; 4.459464796836507E7 ; 1.2081191038620615E9 ; 3.1520812425858617E9 ; 7.833828168330267E10 ; 0.0
74 ; 4.45979022603836E7 ; 1.208179560181925E9 ; 3.196675890554227E9 ; 7.954640078716473E10 ; 0.0
75 ; 4.460363491435127E7 ; 1.2082402872319105E9 ; 3.2412737928146105E9 ; 8.075458034734666E10 ; 0.0
76 ; 4.4604998210004985E7 ; 1.2083012728659067E9 ; 3.285877427728962E9 ; 8.196282063457857E10 ; 0.0
77 ; 4.461215928725711E7 ; 1.2083625052954497E9 ; 3.3304824259389668E9 ; 8.317112190744447E10 ; 0.0
78 ; 4.45980600875018E7 ; 1.2084239730781069E9 ; 3.375094585226224E9 ; 8.437948441273993E10 ; 0.0
79 ; 4.458612093042599E7 ; 1.208485665106104E9 ; 3.419692645313726E9 ; 8.558790838581804E10 ; 0.0
80 ; 4.4579169637141526E7 ; 1.208547570595217E9 ; 3.464278766244152E9 ; 8.679639405092415E10 ; 0.0
81 ; 4.457066891295642E7 ; 1.2086096790739357E9 ; 3.508857935881294E9 ; 8.800494162151936E10 ; 0.0
82 ; 4.455346425121813E7 ; 1.2086719803729033E9 ; 3.55342860479425E9 ; 8.921355130059329E10 ; 0.0
83 ; 4.454898563624401E7 ; 1.208734464614641E9 ; 3.5979820690454683E9 ; 9.04222232809662E10 ; 0.0
84 ; 4.453693575024591E7 ; 1.2087971222035637E9 ; 3.642531054681712E9 ; 9.163095774558084E10 ; 0.0
85 ; 4.451762935879218E7 ; 1.2088599438162806E9 ; 3.687067990431958E9 ; 9.283975486778441E10 ; 0.0
86 ; 4.45060079044491E7 ; 1.2089229203921907E9 ; 3.7315856197907505E9 ; 9.40486148116007E10 ; 0.0
87 ; 4.44952805407645E7 ; 1.2089860431243625E9 ; 3.7760916276951995E9 ; 9.525753773199289E10 ; 0.0
88 ; 4.447837805866604E7 ; 1.2090493034507048E9 ; 3.820586908235964E9 ; 9.646652377511725E10 ; 0.0
89 ; 4.446718198514469E7 ; 1.2091126930454216E9 ; 3.86506528629463E9 ; 9.767557307856795E10 ; 0.0
90 ; 4.445158307184208E7 ; 1.2091762038107424E9 ; 3.9095324682797747E9 ; 9.888468577161337E10 ; 0.0
91 ; 4.443590622602385E7 ; 1.2092398278689353E9 ; 3.953984051351617E9 ; 1.0009386197542412E11 ; 0.0
92 ; 4.441109794672213E7 ; 1.2093035575545855E9 ; 3.9984199575776405E9 ; 1.0130310180329306E11 ; 0.0
93 ; 4.440113639917706E7 ; 1.2093673854071405E9 ; 4.0428310555243626E9 ; 1.0251240536084764E11 ; 0.0
94 ; 4.438541999808062E7 ; 1.2094313041637173E9 ; 4.0872321919235396E9 ; 1.0372177274625478E11 ; 0.0
95 ; 4.437306461338948E7 ; 1.2094953067521577E9 ; 4.1316176119216204E9 ; 1.0493120405041849E11 ; 0.0
96 ; 4.434913402762413E7 ; 1.209559386284335E9 ; 4.17599067653501E9 ; 1.0614069935717064E11 ; 0.0
97 ; 4.434341973726041E7 ; 1.209623536049696E9 ; 4.220339810562634E9 ; 1.0735025874345497E11 ; 0.0
98 ; 4.431409078876492E7 ; 1.2096877495090425E9 ; 4.2646832302998943E9 ; 1.0855988227950467E11 ; 0.0
99 ; 4.4302478634000406E7 ; 1.2097520202885325E9 ; 4.308997321088659E9 ; 1.0976957002901372E11 ; 0.0
100 ; 4.428696435585427E7 ; 1.2098163421739054E9 ; 4.35329979972266E9 ; 1.1097932204930225E11 ; 0.0
101 ; 4.426319188995912E7 ; 1.2098807091049178E9 ; 4.397586764078514E9 ; 1.1218913839147615E11 ; 0.0
102 ; 4.424355999473049E7 ; 1.209945115169987E9 ; 4.441849955968473E9 ; 1.1339901910058107E11 ; 0.0
103 ; 4.42154526720162E7 ; 1.210009554601033E9 ; 4.486093515963204E9 ; 1.1460896421575105E11 ; 0.0
104 ; 4.4202875125709295E7 ; 1.2100740217685108E9 ; 4.530308968635221E9 ; 1.1581897377035208E11 ; 0.0
105 ; 4.418414373580793E7 ; 1.210138511176633E9 ; 4.57451184376093E9 ; 1.1702904779212059E11 ; 0.0
106 ; 4.4160807179198116E7 ; 1.2102030174587674E9 ; 4.618695987496738E9 ; 1.1823918630329723E11 ; 0.0
107 ; 4.413984304508971E7 ; 1.2102675353730118E9 ; 4.662856794675937E9 ; 1.19449389320756E11 ; 0.0
108 ; 4.412058600339645E7 ; 1.210332059797933E9 ; 4.706996637721026E9 ; 1.2065965685612901E11 ; 0.0
109 ; 4.40947047390065E7 ; 1.2103965857284677E9 ; 4.751117223724422E9 ; 1.2186998891592694E11 ; 0.0
110 ; 4.4073207241462715E7 ; 1.210461108271978E9 ; 4.7952119284634285E9 ; 1.2308038550165541E11 ; 0.0
111 ; 4.404551410106707E7 ; 1.2105256226444583E9 ; 4.839285135704891E9 ; 1.2429084660992738E11 ; 0.0
112 ; 4.402845225741267E7 ; 1.2105901241668832E9 ; 4.883330649805959E9 ; 1.2550137223257184E11 ; 0.0
113 ; 4.400013710383028E7 ; 1.2106546082616954E9 ; 4.927359102063372E9 ; 1.2671196235673872E11 ; 0.0
114 ; 4.397453607340234E7 ; 1.2107190704494271E9 ; 4.971359239167202E9 ; 1.2792261696500041E11 ; 0.0
115 ; 4.394909038667602E7 ; 1.210783506345448E9 ; 5.015333775240604E9 ; 1.2913333603544984E11 ; 0.0
116 ; 4.392715194000722E7 ; 1.2108479116568387E9 ; 5.05928286562728E9 ; 1.3034411954179529E11 ; 0.0
117 ; 4.390180409364788E7 ; 1.2109122821793804E9 ; 5.103210017567287E9 ; 1.3155496745345213E11 ; 0.0
118 ; 4.387008598562154E7 ; 1.2109766137946606E9 ; 5.147111821660935E9 ; 1.3276587973563152E11 ; 0.0
119 ; 4.384784878220321E7 ; 1.2110409024672863E9 ; 5.190981907646557E9 ; 1.3397685634942618E11 ; 0.0
120 ; 4.381998750315053E7 ; 1.211105144242205E9 ; 5.234829756428761E9 ; 1.3518789725189346E11 ; 0.0
121 ; 4.378728208839592E7 ; 1.211169335242123E9 ; 5.278649743931911E9 ; 1.3639900239613567E11 ; 0.0
122 ; 4.376529325618859E7 ; 1.2112334716650262E9 ; 5.322437026020308E9 ; 1.3761017173137778E11 ; 0.0
123 ; 4.3744739501160234E7 ; 1.2112975497817893E9 ; 5.366202319276496E9 ; 1.3882140520304282E11 ; 0.0
124 ; 4.371040344850765E7 ; 1.2113615659338777E9 ; 5.409947058777657E9 ; 1.4003270275282462E11 ; 0.0
125 ; 4.368300649085504E7 ; 1.2114255165311353E9 ; 5.453657462226164E9 ; 1.4124406431875848E11 ; 0.0
126 ; 4.365758215670709E7 ; 1.2114893980496538E9 ; 5.497340468717019E9 ; 1.424554898352896E11 ; 0.0
127 ; 4.362038341386008E7 ; 1.2115532070297234E9 ; 5.540998050873726E9 ; 1.4366697923333926E11 ; 0.0
128 ; 4.358870687056966E7 ; 1.2116169400738578E9 ; 5.584618434287586E9 ; 1.44878532440369E11 ; 0.0
129 ; 4.355701768563469E7 ; 1.2116805938448951E9 ; 5.628207141158155E9 ; 1.4609014938044284E11 ; 0.0
130 ; 4.35231304154456E7 ; 1.2117441650641682E9 ; 5.67176415884379E9 ; 1.4730182997428775E11 ; 0.0
131 ; 4.347807500032775E7 ; 1.2118076505097413E9 ; 5.715287289259235E9 ; 1.4851357413935193E11 ; 0.0
132 ; 4.343468694590813E7 ; 1.2118710470147154E9 ; 5.758765364259563E9 ; 1.4972538178986166E11 ; 0.0
133 ; 4.339311591361924E7 ; 1.2119343514655905E9 ; 5.802200051205472E9 ; 1.5093725283687637E11 ; 0.0
134 ; 4.334410376759208E7 ; 1.211997560800696E9 ; 5.845593167119091E9 ; 1.5214918718834195E11 ; 0.0
135 ; 4.330553849351381E7 ; 1.2120606720086699E9 ; 5.888937270886683E9 ; 1.5336118474914264E11 ; 0.0
136 ; 4.3251032378389165E7 ; 1.2121236821270008E9 ; 5.932242809380198E9 ; 1.545732454211513E11 ; 0.0
137 ; 4.320520471757644E7 ; 1.212186588240619E9 ; 5.975493841758587E9 ; 1.5578536910327832E11 ; 0.0
138 ; 4.315752898952823E7 ; 1.2122493874805396E9 ; 6.018699046476163E9 ; 1.5699755569151895E11 ; 0.0
139 ; 4.3101798602339625E7 ; 1.2123120770225563E9 ; 6.061856575465692E9 ; 1.5820980507899948E11 ; 0.0
140 ; 4.306615984266433E7 ; 1.2123746540859814E9 ; 6.104958374068031E9 ; 1.5942211715602203E11 ; 0.0
141 ; 4.3014076967003405E7 ; 1.2124371159324296E9 ; 6.148024533910696E9 ; 1.60634491810108E11 ; 0.0
142 ; 4.296975561354697E7 ; 1.2124994598646498E9 ; 6.1910386108777E9 ; 1.6184692892604044E11 ; 0.0
143 ; 4.2915679585700676E7 ; 1.212561683225394E9 ; 6.234008366491247E9 ; 1.630594283859051E11 ; 0.0
144 ; 4.2866725555027895E7 ; 1.2126237833963308E9 ; 6.276924046076948E9 ; 1.642719900691305E11 ; 0.0
145 ; 4.283472566721038E7 ; 1.2126857577969942E9 ; 6.319790771631976E9 ; 1.6548461385252682E11 ; 0.0
146 ; 4.279729838812586E7 ; 1.2127476038837721E9 ; 6.362625497299187E9 ; 1.6669729961032382E11 ; 0.0
147 ; 4.276403853752536E7 ; 1.2128093191489296E9 ; 6.405422795687312E9 ; 1.6791004721420758E11 ; 0.0
148 ; 4.273577798090417E7 ; 1.2128709011196678E9 ; 6.448186834224837E9 ; 1.691228565333565E11 ; 0.0
149 ; 4.270485678575588E7 ; 1.2129323473572135E9 ; 6.490922612205742E9 ; 1.7033572743447617E11 ; 0.0
150 ; 4.266714779395454E7 ; 1.2129936554559448E9 ; 6.533627468991498E9 ; 1.7154865978183337E11 ; 0.0
151 ; 4.2638370271423124E7 ; 1.2130548230425425E9 ; 6.576294616785453E9 ; 1.727616534372893E11 ; 0.0
152 ; 4.260529354100567E7 ; 1.2131158477751758E9 ; 6.618932987056876E9 ; 1.7397470826033185E11 ; 0.0
153 ; 4.25594062793141E7 ; 1.2131767273427122E9 ; 6.661538280597882E9 ; 1.7518782410810703E11 ; 0.0
154 ; 4.253320727220653E7 ; 1.2132374594639583E9 ; 6.704097686877196E9 ; 1.7640100083544974E11 ; 0.0
155 ; 4.249326926442488E7 ; 1.2132980418869247E9 ; 6.746630894149403E9 ; 1.776142382949137E11 ; 0.0
156 ; 4.2465248326647386E7 ; 1.2133584723881173E9 ; 6.789124163413828E9 ; 1.7882753633680063E11 ; 0.0
157 ; 4.242615163566527E7 ; 1.2134187487718515E9 ; 6.831589411740476E9 ; 1.8004089480918875E11 ; 0.0
158 ; 4.2394513190925986E7 ; 1.2134788688695927E9 ; 6.874015563376141E9 ; 1.812543135579606E11 ; 0.0
159 ; 4.2352940939350635E7 ; 1.2135388305393162E9 ; 6.916410076567066E9 ; 1.824677924268302E11 ; 0.0
160 ; 4.231627486311815E7 ; 1.2135986316648908E9 ; 6.958763017506417E9 ; 1.836813312573695E11 ; 0.0
161 ; 4.228532853877642E7 ; 1.2136582701554842E9 ; 7.001079292369535E9 ; 1.848949298890344E11 ; 0.0
162 ; 4.225007013315536E7 ; 1.213717743944985E9 ; 7.043364620908312E9 ; 1.8610858815918988E11 ; 0.0
163 ; 4.221447242019437E7 ; 1.2137770509914477E9 ; 7.085614691041468E9 ; 1.8732230590313486E11 ; 0.0
164 ; 4.218675560043606E7 ; 1.213836189276556E9 ; 7.127829163461662E9 ; 1.885360829541263E11 ; 0.0
165 ; 4.214236774129683E7 ; 1.2138951568051014E9 ; 7.1700159190620985E9 ; 1.8974991914340286E11 ; 0.0
166 ; 4.2108672347440004E7 ; 1.2139539516044831E9 ; 7.212158286803395E9 ; 1.9096381430020798E11 ; 0.0
167 ; 4.206973585741295E7 ; 1.2140125717242212E9 ; 7.254266959150835E9 ; 1.9217776825181247E11 ; 0.0
168 ; 4.203755938604553E7 ; 1.2140710152354884E9 ; 7.296336695008248E9 ; 1.9339178082353668E11 ; 0.0
169 ; 4.200355405030744E7 ; 1.214129280230656E9 ; 7.338374254394294E9 ; 1.9460585183877216E11 ; 0.0
170 ; 4.19577114460362E7 ; 1.214187364822856E9 ; 7.380377808444601E9 ; 1.958199811190028E11 ; 0.0
171 ; 4.1917802284761265E7 ; 1.2142452671455562E9 ; 7.422335519890637E9 ; 1.9703416848382565E11 ; 0.0
172 ; 4.1889910856898144E7 ; 1.2143029853521504E9 ; 7.464253322175399E9 ; 1.9824841375097122E11 ; 0.0
173 ; 4.185307716292819E7 ; 1.2143605176155622E9 ; 7.506143233032297E9 ; 1.9946271673632336E11 ; 0.0
174 ; 4.18322649035663E7 ; 1.2144178621278605E9 ; 7.547996310195226E9 ; 2.0067707725393893E11 ; 0.0
175 ; 4.1803118345636606E7 ; 1.2144750170998895E9 ; 7.589828575098792E9 ; 2.018914951160668E11 ; 0.0
176 ; 4.178661425604588E7 ; 1.2145319807609081E9 ; 7.631631693444428E9 ; 2.031059701331667E11 ; 0.0
177 ; 4.176258858998696E7 ; 1.214588751358244E9 ; 7.673418307700475E9 ; 2.0432050211392758E11 ; 0.0
178 ; 4.174330778693071E7 ; 1.2146453271569567E9 ; 7.715180896290462E9 ; 2.0553509086528583E11 ; 0.0
179 ; 4.171338143170259E7 ; 1.2147017064395127E9 ; 7.756924204077393E9 ; 2.0674973619244278E11 ; 0.0
180 ; 4.16939586497392E7 ; 1.2147578875054703E9 ; 7.798637585509095E9 ; 2.079644378988823E11 ; 0.0
181 ; 4.1673613508345924E7 ; 1.214813868671175E9 ; 7.840331544158834E9 ; 2.0917919578638776E11 ; 0.0
182 ; 4.164488272729814E7 ; 1.214869648269465E9 ; 7.88200515766718E9 ; 2.1039400965505893E11 ; 0.0
183 ; 4.162319102185499E7 ; 1.2149252246493855E9 ; 7.923650040394478E9 ; 2.116088793033284E11 ; 0.0
184 ; 4.1610828124423794E7 ; 1.2149805961759124E9 ; 7.965273231416333E9 ; 2.1282380452797778E11 ; 0.0
185 ; 4.15793061372477E7 ; 1.2150357612296839E9 ; 8.006884059540757E9 ; 2.140387851241537E11 ; 0.0
186 ; 4.1556927964036226E7 ; 1.2150907182067432E9 ; 8.048463365678005E9 ; 2.1525382088538336E11 ; 0.0
187 ; 4.153945506236365E7 ; 1.2151454655182862E9 ; 8.090020293642041E9 ; 2.1646891160359012E11 ; 0.0
188 ; 4.150956599883646E7 ; 1.2152000015904186E9 ; 8.131559748704405E9 ; 2.176840570691084E11 ; 0.0
189 ; 4.1485747168602705E7 ; 1.215254324863922E9 ; 8.173069314703241E9 ; 2.1889925707069882E11 ; 0.0
190 ; 4.1460995587554365E7 ; 1.2153084337940247E9 ; 8.214555061871844E9 ; 2.2011451139556274E11 ; 0.0
191 ; 4.14350299772683E7 ; 1.215362326850181E9 ; 8.256016057459398E9 ; 2.2132981982935678E11 ; 0.0
192 ; 4.1421385374308646E7 ; 1.2154160025158587E9 ; 8.2974510874366665E9 ; 2.2254518215620697E11 ; 0.0
193 ; 4.139211574802917E7 ; 1.2154694592883306E9 ; 8.338872472810975E9 ; 2.2376059815872284E11 ; 0.0
194 ; 4.1366235069628015E7 ; 1.2155226956784751E9 ; 8.380264588559004E9 ; 2.2497606761801117E11 ; 0.0
195 ; 4.134701839814278E7 ; 1.2155757102105806E9 ; 8.421630823628632E9 ; 2.2619159031368964E11 ; 0.0
196 ; 4.1325738924057454E7 ; 1.2156285014221578E9 ; 8.462977842026774E9 ; 2.274071660239002E11 ; 0.0
