CSV File for the Network on Day 323
1 - Minute m 
2 - Power Consumed at minute m 
3 - Power Produced at minute m 
4 - Energy Consumed since the beginning of the day 
5 - Energy Produced since the beginning of the day 
6 - Energy Lost since the beginning of the day 
 
0 ; 3.888302628110467E7 ; 6.376156891792696E8 ; 0.0 ; 0.0 ; 0.0
1 ; 3.8922013843546554E7 ; 6.385257135905006E8 ; 3.888302628110467E7 ; 6.376156891792696E8 ; 0.0
2 ; 3.8962515095250964E7 ; 6.412892280450943E8 ; 7.780504012465122E7 ; 1.2761414027697701E9 ; 0.0
3 ; 3.9018297263925545E7 ; 6.459062442456346E8 ; 1.1676755521990219E8 ; 1.9174306308148644E9 ; 0.0
4 ; 3.9073338843858615E7 ; 6.523767726234106E8 ; 1.5578585248382774E8 ; 2.563336875060499E9 ; 0.0
5 ; 3.914613101759389E7 ; 6.607008222999585E8 ; 1.9485919132768637E8 ; 3.21571364768391E9 ; 0.0
6 ; 3.923635444994545E7 ; 6.70878401053009E8 ; 2.3400532234528026E8 ; 3.8764144699838686E9 ; 0.0
7 ; 3.9373052724053435E7 ; 6.829095152871441E8 ; 2.7324167679522574E8 ; 4.547292871036878E9 ; 0.0
8 ; 3.955482942583703E7 ; 6.967941700094162E8 ; 3.126147295192792E8 ; 5.230202386324021E9 ; 0.0
9 ; 3.9835727993896045E7 ; 7.125323688101554E8 ; 3.521695589451162E8 ; 5.926996556333438E9 ; 0.0
10 ; 4.0281109117876835E7 ; 7.301241138491297E8 ; 3.920052869390123E8 ; 6.639528925143593E9 ; 0.0
11 ; 4.097478021018793E7 ; 7.495694058471926E8 ; 4.322863960568891E8 ; 7.3696530389927225E9 ; 0.0
12 ; 4.2078269663046725E7 ; 7.708682440834904E8 ; 4.73261176267077E8 ; 8.119222444839915E9 ; 0.0
13 ; 4.3142406968993075E7 ; 7.940206263982551E8 ; 5.1533944593012375E8 ; 8.890090688923405E9 ; 0.0
14 ; 4.326938888811033E7 ; 8.190265492011573E8 ; 5.584818528991169E8 ; 9.68411131532166E9 ; 0.0
15 ; 4.331944987664269E7 ; 8.458860074851434E8 ; 6.017512417872272E8 ; 1.0503137864522816E10 ; 0.0
16 ; 4.3372749378313616E7 ; 8.745989948456328E8 ; 6.450706916638699E8 ; 1.134902387200796E10 ; 0.0
17 ; 4.34270366360703E7 ; 9.051655035048937E8 ; 6.884434410421835E8 ; 1.2223622866853592E10 ; 0.0
18 ; 4.347670887084132E7 ; 9.375855243413906E8 ; 7.318704776782538E8 ; 1.3128788370358486E10 ; 0.0
19 ; 4.353382443491453E7 ; 9.71859046923834E8 ; 7.75347186549095E8 ; 1.4066373894699877E10 ; 0.0
20 ; 4.35851239258254E7 ; 1.0079860595496397E9 ; 8.188810109840095E8 ; 1.503823294162371E10 ; 0.0
21 ; 4.363996819984307E7 ; 1.0459665492874697E9 ; 8.624661349098349E8 ; 1.6046219001173351E10 ; 0.0
22 ; 4.369057518992156E7 ; 1.0858005020234935E9 ; 9.061061031096779E8 ; 1.7092185550460821E10 ; 0.0
23 ; 4.374645718624164E7 ; 1.127487902510995E9 ; 9.497966782995994E8 ; 1.8177986052484314E10 ; 0.0
24 ; 4.379694975265404E7 ; 1.171028734422924E9 ; 9.93543135485841E8 ; 1.9305473954995308E10 ; 0.0
25 ; 4.384615292070962E7 ; 1.2085512257960925E9 ; 1.0373400852384951E9 ; 2.0476502689418232E10 ; 0.0
26 ; 4.390365387644727E7 ; 1.208576645309766E9 ; 1.0811862381592047E9 ; 2.1685053915214325E10 ; 0.0
27 ; 4.395173100337759E7 ; 1.2086035894940128E9 ; 1.125089892035652E9 ; 2.289363056052409E10 ; 0.0
28 ; 4.399866616027344E7 ; 1.2086320382705672E9 ; 1.1690416230390296E9 ; 2.4102234150018105E10 ; 0.0
29 ; 4.405516058212568E7 ; 1.208661970773426E9 ; 1.2130402891993032E9 ; 2.5310866188288673E10 ; 0.0
30 ; 4.410381030792409E7 ; 1.2086933654104834E9 ; 1.2570954497814288E9 ; 2.65195281590621E10 ; 0.0
31 ; 4.414907418277146E7 ; 1.2087261999252992E9 ; 1.3011992600893528E9 ; 2.7728221524472584E10 ; 0.0
32 ; 4.420035731661527E7 ; 1.2087604514586453E9 ; 1.3453483342721243E9 ; 2.8936947724397884E10 ; 0.0
33 ; 4.424546393081971E7 ; 1.208796096609505E9 ; 1.3895486915887396E9 ; 3.014570817585653E10 ; 0.0
34 ; 4.429423111230113E7 ; 1.208833111495209E9 ; 1.4337941555195594E9 ; 3.1354504272466034E10 ; 0.0
35 ; 4.4335852163183376E7 ; 1.208871471810436E9 ; 1.4780883866318605E9 ; 3.2563337383961243E10 ; 0.0
36 ; 4.437824777512309E7 ; 1.2089111528848176E9 ; 1.522424238795044E9 ; 3.377220885577168E10 ; 0.0
37 ; 4.4422565655146696E7 ; 1.208952129738924E9 ; 1.566802486570167E9 ; 3.4981120008656494E10 ; 0.0
38 ; 4.445923262762648E7 ; 1.208994377138434E9 ; 1.6112250522253137E9 ; 3.619007213839542E10 ; 0.0
39 ; 4.45027028714438E7 ; 1.2090378696463149E9 ; 1.65568428485294E9 ; 3.739906651553385E10 ; 0.0
40 ; 4.453487599704602E7 ; 1.2090825816728756E9 ; 1.7001869877243838E9 ; 3.860810438518017E10 ; 0.0
41 ; 4.457516101334599E7 ; 1.2091284875235715E9 ; 1.7447218637214298E9 ; 3.981718696685304E10 ; 0.0
42 ; 4.4597394573248595E7 ; 1.2091755614444735E9 ; 1.7892970247347758E9 ; 4.102631545437662E10 ; 0.0
43 ; 4.463974542519605E7 ; 1.2092237776653342E9 ; 1.8338944193080244E9 ; 4.223549101582109E10 ; 0.0
44 ; 4.466507644403602E7 ; 1.2092731104402044E9 ; 1.8785341647332206E9 ; 4.344471479348643E10 ; 0.0
45 ; 4.4693039916312486E7 ; 1.2093235340855803E9 ; 1.9231992411772566E9 ; 4.465398790392663E10 ; 0.0
46 ; 4.472069430346706E7 ; 1.209375023016074E9 ; 1.967892281093569E9 ; 4.586331143801221E10 ; 0.0
47 ; 4.474464059631616E7 ; 1.2094275517776222E9 ; 2.012612975397036E9 ; 4.707268646102828E10 ; 0.0
48 ; 4.477482954346983E7 ; 1.2094810950782604E9 ; 2.0573576159933522E9 ; 4.828211401280591E10 ; 0.0
49 ; 4.4783143203994855E7 ; 1.209535627816506E9 ; 2.102132445536822E9 ; 4.949159510788417E10 ; 0.0
50 ; 4.4805836238456E7 ; 1.2095911251074018E9 ; 2.1469155887408168E9 ; 5.0701130735700676E10 ; 0.0
51 ; 4.481924497894527E7 ; 1.2096475623062897E9 ; 2.191721424979273E9 ; 5.1910721860808075E10 ; 0.0
52 ; 4.4837138431851745E7 ; 1.2097049150303814E9 ; 2.236540669958218E9 ; 5.3120369423114365E10 ; 0.0
53 ; 4.485139366060773E7 ; 1.2097631591782103E9 ; 2.28137780839007E9 ; 5.4330074338144745E10 ; 0.0
54 ; 4.486559832265107E7 ; 1.2098222709470491E9 ; 2.326229202050678E9 ; 5.553983749732295E10 ; 0.0
55 ; 4.4885732269110255E7 ; 1.209882226848386E9 ; 2.3710948003733287E9 ; 5.6749659768270004E10 ; 0.0
56 ; 4.489628870507694E7 ; 1.2099430037215457E9 ; 2.415980532642439E9 ; 5.795954199511839E10 ; 0.0
57 ; 4.491470630053858E7 ; 1.2100045787455611E9 ; 2.460876821347516E9 ; 5.9169484998839935E10 ; 0.0
58 ; 4.493477475434048E7 ; 1.2100669294493835E9 ; 2.5057915276480546E9 ; 6.0379489577585495E10 ; 0.0
59 ; 4.494356945268302E7 ; 1.2101300337205343E9 ; 2.5507263024023952E9 ; 6.158955650703488E10 ; 0.0
60 ; 4.495563368243247E7 ; 1.2101938698122869E9 ; 2.595669871855078E9 ; 6.279968654075542E10 ; 0.0
61 ; 4.497024893139091E7 ; 1.2102584163494847E9 ; 2.640625505537511E9 ; 6.40098804105677E10 ; 0.0
62 ; 4.498230641166426E7 ; 1.2103236523330777E9 ; 2.6855957544689016E9 ; 6.522013882691719E10 ; 0.0
63 ; 4.499076391206617E7 ; 1.2103895571434746E9 ; 2.730578060880566E9 ; 6.643046247925027E10 ; 0.0
64 ; 4.499904282784955E7 ; 1.2104561105427983E9 ; 2.775568824792632E9 ; 6.764085203639374E10 ; 0.0
65 ; 4.502150034568303E7 ; 1.210523292676126E9 ; 2.8205678676204815E9 ; 6.885130814693654E10 ; 0.0
66 ; 4.5029172641713746E7 ; 1.210591084071803E9 ; 2.8655893679661646E9 ; 7.006183143961267E10 ; 0.0
67 ; 4.504187471315206E7 ; 1.2106594656408994E9 ; 2.910618540607878E9 ; 7.127242252368448E10 ; 0.0
68 ; 4.505126378550622E7 ; 1.2107284186758938E9 ; 2.95566041532103E9 ; 7.248308198932538E10 ; 0.0
69 ; 4.5065839790984094E7 ; 1.2107979248486488E9 ; 3.0007116791065364E9 ; 7.369381040800127E10 ; 0.0
70 ; 4.506728319987176E7 ; 1.2108679662077465E9 ; 3.0457775188975205E9 ; 7.490460833284991E10 ; 0.0
71 ; 4.508077517849219E7 ; 1.2109385251752527E9 ; 3.090844802097392E9 ; 7.611547629905766E10 ; 0.0
72 ; 4.508754774383391E7 ; 1.2110095845429626E9 ; 3.135925577275884E9 ; 7.732641482423291E10 ; 0.0
73 ; 4.509629099270108E7 ; 1.2110811274681888E9 ; 3.181013125019718E9 ; 7.853742440877588E10 ; 0.0
74 ; 4.510432343868679E7 ; 1.2111531374691439E9 ; 3.226109416012419E9 ; 7.974850553624406E10 ; 0.0
75 ; 4.511601848522914E7 ; 1.211225598419965E9 ; 3.271213739451106E9 ; 8.095965867371321E10 ; 0.0
76 ; 4.512532629856426E7 ; 1.2112984945454276E9 ; 3.316329757936335E9 ; 8.217088427213318E10 ; 0.0
77 ; 4.512262868514938E7 ; 1.2113718104153905E9 ; 3.3614550842348995E9 ; 8.33821827666786E10 ; 0.0
78 ; 4.512735991581455E7 ; 1.2114455309390116E9 ; 3.4065777129200487E9 ; 8.4593554577094E10 ; 0.0
79 ; 4.5114855961067215E7 ; 1.2115196413587716E9 ; 3.451705072835863E9 ; 8.5805000108033E10 ; 0.0
80 ; 4.510117577538261E7 ; 1.211594127244336E9 ; 3.4968199287969303E9 ; 8.701651974939177E10 ; 0.0
81 ; 4.510779834376718E7 ; 1.2116689744862905E9 ; 3.541921104572313E9 ; 8.822811387663611E10 ; 0.0
82 ; 4.509061218492198E7 ; 1.2117441692897754E9 ; 3.58702890291608E9 ; 8.94397828511224E10 ; 0.0
83 ; 4.508870641703813E7 ; 1.2118196981680453E9 ; 3.6321195151010017E9 ; 9.065152702041219E10 ; 0.0
84 ; 4.507665083588043E7 ; 1.2118955479359763E9 ; 3.6772082215180397E9 ; 9.186334671858023E10 ; 0.0
85 ; 4.506427199438401E7 ; 1.211971705703546E9 ; 3.72228487235392E9 ; 9.30752422665162E10 ; 0.0
86 ; 4.5063895171557575E7 ; 1.2120481588693008E9 ; 3.767349144348304E9 ; 9.428721397221976E10 ; 0.0
87 ; 4.505192507922834E7 ; 1.2121248951138303E9 ; 3.812413039519861E9 ; 9.549926213108905E10 ; 0.0
88 ; 4.504191812147703E7 ; 1.2122019023932655E9 ; 3.8574649645990896E9 ; 9.671138702620288E10 ; 0.0
89 ; 4.503274373529486E7 ; 1.2122791689328127E9 ; 3.9025068827205667E9 ; 9.792358892859615E10 ; 0.0
90 ; 4.501733525684708E7 ; 1.212356683220336E9 ; 3.9475396264558616E9 ; 9.913586809752896E10 ; 0.0
91 ; 4.500559846792282E7 ; 1.2124344340000029E9 ; 3.9925569617127085E9 ; 1.003482247807493E11 ; 0.0
92 ; 4.500506867883066E7 ; 1.2125124102659955E9 ; 4.037562560180631E9 ; 1.015606592147493E11 ; 0.0
93 ; 4.498246492986926E7 ; 1.2125906012563052E9 ; 4.082567628859462E9 ; 1.0277317162501529E11 ; 0.0
94 ; 4.4967304949487746E7 ; 1.2126689964466112E9 ; 4.127550093789331E9 ; 1.0398576222627159E11 ; 0.0
95 ; 4.496045092793712E7 ; 1.212747585544252E9 ; 4.1725173987388186E9 ; 1.051984312227182E11 ; 0.0
96 ; 4.495076696436922E7 ; 1.212826358482296E9 ; 4.2174778496667557E9 ; 1.0641117880826245E11 ; 0.0
97 ; 4.4937886902062245E7 ; 1.2129053054137151E9 ; 4.262428616631125E9 ; 1.0762400516674475E11 ; 0.0
98 ; 4.4925372873764165E7 ; 1.212984416705667E9 ; 4.307366503533187E9 ; 1.0883691047215846E11 ; 0.0
99 ; 4.491448241921059E7 ; 1.2130636829338841E9 ; 4.352291876406951E9 ; 1.1004989488886414E11 ; 0.0
100 ; 4.48944273433566E7 ; 1.21314309487718E9 ; 4.397206358826161E9 ; 1.1126295857179802E11 ; 0.0
101 ; 4.487970741938889E7 ; 1.2132226435120697E9 ; 4.4421007861695175E9 ; 1.124761016666752E11 ; 0.0
102 ; 4.486290269346378E7 ; 1.2133023200075035E9 ; 4.486980493588906E9 ; 1.1368932431018727E11 ; 0.0
103 ; 4.4842871658999726E7 ; 1.2133821157197247E9 ; 4.53184339628237E9 ; 1.1490262663019478E11 ; 0.0
104 ; 4.483003717175999E7 ; 1.2134620221872387E9 ; 4.576686267941369E9 ; 1.161160087459145E11 ; 0.0
105 ; 4.481939124665145E7 ; 1.2135420311259065E9 ; 4.621516305113129E9 ; 1.1732947076810175E11 ; 0.0
106 ; 4.479875697515026E7 ; 1.2136221344241533E9 ; 4.66633569635978E9 ; 1.1854301279922765E11 ; 0.0
107 ; 4.477815159699481E7 ; 1.213702324138296E9 ; 4.71113445333493E9 ; 1.197566349336518E11 ; 0.0
108 ; 4.476277708152028E7 ; 1.213782592487988E9 ; 4.755912604931925E9 ; 1.2097033725779008E11 ; 0.0
109 ; 4.474302634134988E7 ; 1.213862931851781E9 ; 4.800675382013445E9 ; 1.2218411985027808E11 ; 0.0
110 ; 4.4729074741380826E7 ; 1.2139433347627993E9 ; 4.8454184083547945E9 ; 1.2339798278212985E11 ; 0.0
111 ; 4.470742851980239E7 ; 1.2140237939045327E9 ; 4.890147483096175E9 ; 1.2461192611689265E11 ; 0.0
112 ; 4.469474010581934E7 ; 1.2141043021067367E9 ; 4.934854911615977E9 ; 1.2582594991079718E11 ; 0.0
113 ; 4.467073210798893E7 ; 1.214184852341447E9 ; 4.979549651721797E9 ; 1.2704005421290392E11 ; 0.0
114 ; 4.4651100250097126E7 ; 1.214265437719101E9 ; 5.024220383829786E9 ; 1.2825423906524536E11 ; 0.0
115 ; 4.46341469640009E7 ; 1.214346051484766E9 ; 5.068871484079884E9 ; 1.2946850450296446E11 ; 0.0
116 ; 4.460491135606861E7 ; 1.2144266870144742E9 ; 5.113505631043884E9 ; 1.3068285055444923E11 ; 0.0
117 ; 4.458795153232632E7 ; 1.2145073378116596E9 ; 5.158110542399953E9 ; 1.3189727724146371E11 ; 0.0
118 ; 4.4567256411270805E7 ; 1.2145879975036955E9 ; 5.20269849393228E9 ; 1.3311178457927538E11 ; 0.0
119 ; 4.454363504390075E7 ; 1.214668659838532E9 ; 5.247265750343551E9 ; 1.3432637257677907E11 ; 0.0
120 ; 4.452647711570436E7 ; 1.2147493186814287E9 ; 5.291809385387451E9 ; 1.355410412366176E11 ; 0.0
121 ; 4.4500993991751656E7 ; 1.2148299680117824E9 ; 5.336335862503156E9 ; 1.3675579055529903E11 ; 0.0
122 ; 4.4481012162458986E7 ; 1.214910601920048E9 ; 5.380836856494907E9 ; 1.3797062052331082E11 ; 0.0
123 ; 4.4460609816626236E7 ; 1.2149912146047475E9 ; 5.425317868657367E9 ; 1.3918553112523087E11 ; 0.0
124 ; 4.443758340616999E7 ; 1.215071800369568E9 ; 5.469778478473993E9 ; 1.404005223398356E11 ; 0.0
125 ; 4.4408422069692984E7 ; 1.215152353620546E9 ; 5.514216061880163E9 ; 1.4161559414020517E11 ; 0.0
126 ; 4.4386040123235166E7 ; 1.215232868863333E9 ; 5.558624483949856E9 ; 1.428307464938257E11 ; 0.0
127 ; 4.4360875862135395E7 ; 1.2153133407005444E9 ; 5.603010524073091E9 ; 1.4404597936268906E11 ; 0.0
128 ; 4.433684236545474E7 ; 1.2153937638291852E9 ; 5.6473713999352255E9 ; 1.452612927033896E11 ; 0.0
129 ; 4.431160679609752E7 ; 1.2154741330381563E9 ; 5.69170824230068E9 ; 1.4647668646721878E11 ; 0.0
130 ; 4.428520446087998E7 ; 1.2155544432058308E9 ; 5.736019849096778E9 ; 1.4769216060025693E11 ; 0.0
131 ; 4.423806009767764E7 ; 1.2156346892977066E9 ; 5.780305053557658E9 ; 1.4890771504346277E11 ; 0.0
132 ; 4.420165794713012E7 ; 1.2157148663641298E9 ; 5.824543113655335E9 ; 1.5012334973276047E11 ; 0.0
133 ; 4.41598013969881E7 ; 1.2157949695380836E9 ; 5.868744771602466E9 ; 1.513390645991246E11 ; 0.0
134 ; 4.412348258352255E7 ; 1.2158749940330467E9 ; 5.912904572999454E9 ; 1.525548595686627E11 ; 0.0
135 ; 4.408213611317718E7 ; 1.2159549351409173E9 ; 5.957028055582976E9 ; 1.5377073456269574E11 ; 0.0
136 ; 4.403900043342563E7 ; 1.2160347882299957E9 ; 6.001110191696154E9 ; 1.5498668949783667E11 ; 0.0
137 ; 4.399461542625149E7 ; 1.2161145487430344E9 ; 6.04514919212958E9 ; 1.5620272428606665E11 ; 0.0
138 ; 4.395842902662595E7 ; 1.21619421219534E9 ; 6.089143807555831E9 ; 1.574188388348097E11 ; 0.0
139 ; 4.3913650130623385E7 ; 1.2162737741729398E9 ; 6.133102236582457E9 ; 1.5863503304700504E11 ; 0.0
140 ; 4.3868103260422796E7 ; 1.2163532303307996E9 ; 6.17701588671308E9 ; 1.5985130682117798E11 ; 0.0
141 ; 4.38272765070257E7 ; 1.2164325763910966E9 ; 6.220883989973503E9 ; 1.610676600515088E11 ; 0.0
142 ; 4.378855070004144E7 ; 1.216511808141546E9 ; 6.264711266480529E9 ; 1.6228409262789987E11 ; 0.0
143 ; 4.374094207820409E7 ; 1.2165909214337769E9 ; 6.308499817180571E9 ; 1.635006044360414E11 ; 0.0
144 ; 4.370395476201649E7 ; 1.2166699121817596E9 ; 6.352240759258775E9 ; 1.647171953574752E11 ; 0.0
145 ; 4.367250310543697E7 ; 1.2167487763602772E9 ; 6.395944714020791E9 ; 1.6593386526965695E11 ; 0.0
146 ; 4.3643485527959235E7 ; 1.2168275100034485E9 ; 6.439617217126228E9 ; 1.6715061404601724E11 ; 0.0
147 ; 4.362023936166607E7 ; 1.216906109203291E9 ; 6.483260702654187E9 ; 1.683674415560207E11 ; 0.0
148 ; 4.3586699305068955E7 ; 1.2169845701083307E9 ; 6.526880942015853E9 ; 1.6958434766522397E11 ; 0.0
149 ; 4.3560466792803995E7 ; 1.2170628889222527E9 ; 6.570467641320922E9 ; 1.708013322353323E11 ; 0.0
150 ; 4.353535775971088E7 ; 1.2171410619025936E9 ; 6.614028108113726E9 ; 1.7201839512425455E11 ; 0.0
151 ; 4.350433643379941E7 ; 1.2172190853594713E9 ; 6.657563465873437E9 ; 1.7323553618615714E11 ; 0.0
152 ; 4.347482615028008E7 ; 1.2172969556543577E9 ; 6.701067802307237E9 ; 1.744527552715166E11 ; 0.0
153 ; 4.345084938896382E7 ; 1.2173746691988826E9 ; 6.744542628457517E9 ; 1.7567005222717096E11 ; 0.0
154 ; 4.34239955777481E7 ; 1.2174522224536788E9 ; 6.78799347784648E9 ; 1.7688742689636984E11 ; 0.0
155 ; 4.3392123347059324E7 ; 1.21752961192726E9 ; 6.831417473424229E9 ; 1.7810487911882352E11 ; 0.0
156 ; 4.336744551651359E7 ; 1.217606834174931E9 ; 6.874809596771288E9 ; 1.7932240873075076E11 ; 0.0
157 ; 4.3332304532211654E7 ; 1.2176838857977345E9 ; 6.918177042287802E9 ; 1.805400155649257E11 ; 0.0
158 ; 4.3305374999420665E7 ; 1.217760763441426E9 ; 6.961509346820013E9 ; 1.8175769945072342E11 ; 0.0
159 ; 4.327980928352442E7 ; 1.2178374637954814E9 ; 7.004814721819434E9 ; 1.8297546021416486E11 ; 0.0
160 ; 4.324465335553605E7 ; 1.2179139835921338E9 ; 7.048094531102959E9 ; 1.8419329767796033E11 ; 0.0
161 ; 4.32156244923327E7 ; 1.217990319605438E9 ; 7.091339184458495E9 ; 1.8541121166155246E11 ; 0.0
162 ; 4.318158262105114E7 ; 1.2180664686503668E9 ; 7.134554808950828E9 ; 1.866292019811579E11 ; 0.0
163 ; 4.3159771914438695E7 ; 1.2181424275819287E9 ; 7.177736391571878E9 ; 1.8784726844980826E11 ; 0.0
164 ; 4.312279698538688E7 ; 1.218218193294317E9 ; 7.220896163486317E9 ; 1.890654108773902E11 ; 0.0
165 ; 4.309639853458918E7 ; 1.2182937627200809E9 ; 7.264018960471704E9 ; 1.902836290706845E11 ; 0.0
166 ; 4.306911601541871E7 ; 1.2183691328293235E9 ; 7.307115359006292E9 ; 1.915019228334046E11 ; 0.0
167 ; 4.3039479409787714E7 ; 1.2184443006289208E9 ; 7.350184475021711E9 ; 1.9272029196623392E11 ; 0.0
168 ; 4.301010230904142E7 ; 1.2185192631617675E9 ; 7.3932239544314995E9 ; 1.9393873626686282E11 ; 0.0
169 ; 4.2978263960110396E7 ; 1.218594017506042E9 ; 7.4362340567405405E9 ; 1.951572555300246E11 ; 0.0
170 ; 4.294173583903777E7 ; 1.2186685607744946E9 ; 7.479212320700651E9 ; 1.9637584954753064E11 ; 0.0
171 ; 4.2915940773442924E7 ; 1.2187428901137567E9 ; 7.522154056539689E9 ; 1.9759451810830515E11 ; 0.0
172 ; 4.28851730179726E7 ; 1.218817002703669E9 ; 7.565069997313132E9 ; 1.988132609984189E11 ; 0.0
173 ; 4.286247195131839E7 ; 1.2188908957566323E9 ; 7.607955170331105E9 ; 2.000320780011226E11 ; 0.0
174 ; 4.2782043087490305E7 ; 1.2189645665169733E9 ; 7.650817642282424E9 ; 2.012509688968792E11 ; 0.0
175 ; 4.270458156549142E7 ; 1.2190380122603326E9 ; 7.693599685369914E9 ; 2.0246993346339618E11 ; 0.0
176 ; 4.261992382249586E7 ; 1.219111230293069E9 ; 7.736304266935406E9 ; 2.0368897147565652E11 ; 0.0
177 ; 4.255012253602235E7 ; 1.219184217951681E9 ; 7.778924190757901E9 ; 2.049080827059496E11 ; 0.0
178 ; 4.246625155562775E7 ; 1.2192569726022449E9 ; 7.821474313293923E9 ; 2.0612726692390128E11 ; 0.0
179 ; 4.238353133956074E7 ; 1.2193294916398723E9 ; 7.863940564849551E9 ; 2.073465238965035E11 ; 0.0
180 ; 4.231445877022398E7 ; 1.2194E9 ; 7.906324096189112E9 ; 2.0856585338814337E11 ; 0.0
181 ; 4.2231705777641445E7 ; 1.2194E9 ; 7.948638554959335E9 ; 2.0978525338814337E11 ; 0.0
182 ; 4.2154240002908476E7 ; 1.2194E9 ; 7.990870260736977E9 ; 2.1100465338814337E11 ; 0.0
183 ; 4.207348353713994E7 ; 1.2194E9 ; 8.033024500739885E9 ; 2.1222405338814337E11 ; 0.0
184 ; 4.200226029133637E7 ; 1.2194E9 ; 8.075097984277025E9 ; 2.1344345338814337E11 ; 0.0
185 ; 4.191775437004556E7 ; 1.2194E9 ; 8.117100244568361E9 ; 2.1466285338814337E11 ; 0.0
186 ; 4.1839182772178635E7 ; 1.2194E9 ; 8.159017998938407E9 ; 2.1588225338814337E11 ; 0.0
187 ; 4.17580667376753E7 ; 1.2194E9 ; 8.200857181710586E9 ; 2.1710165338814337E11 ; 0.0
188 ; 4.168058468659332E7 ; 1.2194E9 ; 8.242615248448261E9 ; 2.1832105338814337E11 ; 0.0
189 ; 4.1601690170421004E7 ; 1.2194E9 ; 8.284295833134854E9 ; 2.1954045338814337E11 ; 0.0
190 ; 4.153151662039431E7 ; 1.2194E9 ; 8.325897523305275E9 ; 2.2075985338814337E11 ; 0.0
191 ; 4.144351043744342E7 ; 1.2194E9 ; 8.36742903992567E9 ; 2.2197925338814337E11 ; 0.0
192 ; 4.1361979553095885E7 ; 1.2194E9 ; 8.408872550363113E9 ; 2.2319865338814337E11 ; 0.0
193 ; 4.12922438326123E7 ; 1.2194E9 ; 8.450234529916209E9 ; 2.2441805338814337E11 ; 0.0
194 ; 4.120775276116792E7 ; 1.2194E9 ; 8.491526773748821E9 ; 2.2563745338814337E11 ; 0.0
195 ; 4.112935612690224E7 ; 1.2194E9 ; 8.532734526509989E9 ; 2.2685685338814337E11 ; 0.0
196 ; 4.105247664622287E7 ; 1.2194E9 ; 8.573863882636891E9 ; 2.2807625338814337E11 ; 0.0
197 ; 4.096975113394074E7 ; 1.2194E9 ; 8.614916359283113E9 ; 2.2929565338814337E11 ; 0.0
198 ; 4.088912475566204E7 ; 1.2046147010946918E9 ; 8.655886110417055E9 ; 2.3051505338814337E11 ; 0.0
199 ; 4.080763359864569E7 ; 1.1320694387268534E9 ; 8.696775235172718E9 ; 2.3171966808923807E11 ; 0.0
