CSV File for the Network on Day 351
1 - Minute m 
2 - Power Consumed at minute m 
3 - Power Produced at minute m 
4 - Energy Consumed since the beginning of the day 
5 - Energy Produced since the beginning of the day 
6 - Energy Lost since the beginning of the day 
 
0 ; 3.858886330224095E7 ; 6.351855584757792E8 ; 0.0 ; 0.0 ; 0.0
1 ; 3.8622497777294755E7 ; 6.360964313084366E8 ; 3.858886330224095E7 ; 6.351855584757792E8 ; 0.0
2 ; 3.866965939061456E7 ; 6.388606915828271E8 ; 7.721136107953571E7 ; 1.271281989784216E9 ; 0.0
3 ; 3.871770007293294E7 ; 6.434783552414224E8 ; 1.1588102047015026E8 ; 1.910142681367043E9 ; 0.0
4 ; 3.876753892647593E7 ; 6.499494365666184E8 ; 1.545987205430832E8 ; 2.553621036608465E9 ; 0.0
5 ; 3.883692468087148E7 ; 6.582739481032624E8 ; 1.9336625946955913E8 ; 3.2035704731750836E9 ; 0.0
6 ; 3.8930367004821725E7 ; 6.68451900589333E8 ; 2.3220318415043062E8 ; 3.861844421278346E9 ; 0.0
7 ; 3.906475394453899E7 ; 6.80483302895656E8 ; 2.7113355115525234E8 ; 4.53029632186768E9 ; 0.0
8 ; 3.924241202889649E7 ; 6.943681619754367E8 ; 3.1019830509979135E8 ; 5.210779624763335E9 ; 0.0
9 ; 3.95329531958221E7 ; 7.101064828242829E8 ; 3.4944071712868786E8 ; 5.905147786738771E9 ; 0.0
10 ; 3.9962300414615884E7 ; 7.27698268451252E8 ; 3.8897367032451E8 ; 6.615254269563054E9 ; 0.0
11 ; 4.064539628178419E7 ; 7.471435198613201E8 ; 4.2893597073912585E8 ; 7.342952538014306E9 ; 0.0
12 ; 4.175484875856047E7 ; 7.68442236049511E8 ; 4.6958136702091E8 ; 8.090096057875627E9 ; 0.0
13 ; 4.282201860061454E7 ; 7.91594414006767E8 ; 5.113362157794705E8 ; 8.858538293925137E9 ; 0.0
14 ; 4.2946382463945806E7 ; 8.166000487374812E8 ; 5.54158234380085E8 ; 9.650132707931904E9 ; 0.0
15 ; 4.29940366093809E7 ; 8.434591332884474E8 ; 5.971046168440309E8 ; 1.0466732756669386E10 ; 0.0
16 ; 4.304782804436019E7 ; 8.721716587888408E8 ; 6.400986534534118E8 ; 1.1310191889957832E10 ; 0.0
17 ; 4.309334994120128E7 ; 9.027376145006818E8 ; 6.83146481497772E8 ; 1.2182363548746674E10 ; 0.0
18 ; 4.314405664953778E7 ; 9.351569878791234E8 ; 7.262398314389733E8 ; 1.3085101163247355E10 ; 0.0
19 ; 4.319712102170176E7 ; 9.694297646417699E8 ; 7.693838880885111E8 ; 1.4020258151126478E10 ; 0.0
20 ; 4.3245752337987095E7 ; 1.0055559288461493E9 ; 8.125810091102129E8 ; 1.4989687915768248E10 ; 0.0
21 ; 4.329773534445883E7 ; 1.0435354629743787E9 ; 8.558267614482E8 ; 1.5995243844614397E10 ; 0.0
22 ; 4.335065523414245E7 ; 1.083368348024005E9 ; 8.991244967926588E8 ; 1.7038779307588776E10 ; 0.0
23 ; 4.340042712964979E7 ; 1.1250545636039708E9 ; 9.424751520268012E8 ; 1.812214765561278E10 ; 0.0
24 ; 4.345588103698827E7 ; 1.1685940880346367E9 ; 9.85875579156451E8 ; 1.924720221921675E10 ; 0.0
25 ; 4.349817158473147E7 ; 1.2061151438398948E9 ; 1.0293314601934392E9 ; 2.041579630725139E10 ; 0.0
26 ; 4.355787137659192E7 ; 1.2061389940735064E9 ; 1.0728296317781707E9 ; 2.162191145109128E10 ; 0.0
27 ; 4.360392554068394E7 ; 1.206164229574435E9 ; 1.1163875031547627E9 ; 2.2828050445164787E10 ; 0.0
28 ; 4.36504616823443E7 ; 1.2061908245533884E9 ; 1.1599914286954467E9 ; 2.4034214674739223E10 ; 0.0
29 ; 4.3701297746101566E7 ; 1.2062187524573135E9 ; 1.203641890377791E9 ; 2.524040549929261E10 ; 0.0
30 ; 4.37451308439141E7 ; 1.2062479860727227E9 ; 1.2473431881238925E9 ; 2.6446624251749924E10 ; 0.0
31 ; 4.379940228318457E7 ; 1.2062784976265929E9 ; 1.2910883189678066E9 ; 2.7652872237822647E10 ; 0.0
32 ; 4.38399012210141E7 ; 1.2063102588841956E9 ; 1.334887721250991E9 ; 2.885915073544924E10 ; 0.0
33 ; 4.38824903777829E7 ; 1.2063432412433028E9 ; 1.3787276224720051E9 ; 3.006546099433344E10 ; 0.0
34 ; 4.392970453332338E7 ; 1.2063774158243008E9 ; 1.422610112849788E9 ; 3.127180423557674E10 ; 0.0
35 ; 4.39683463972871E7 ; 1.2064127535558329E9 ; 1.4665398173831112E9 ; 3.247818165140104E10 ; 0.0
36 ; 4.400976015157184E7 ; 1.2064492252556741E9 ; 1.5105081637803984E9 ; 3.368459440495687E10 ; 0.0
37 ; 4.404912776532701E7 ; 1.2064868017066255E9 ; 1.5545179239319701E9 ; 3.489104363021255E10 ; 0.0
38 ; 4.408992645947089E7 ; 1.2065254537272763E9 ; 1.598567051697297E9 ; 3.6097530431919174E10 ; 0.0
39 ; 4.412100151172534E7 ; 1.2065651522375708E9 ; 1.642656978156768E9 ; 3.7304055885646454E10 ; 0.0
40 ; 4.415263361532706E7 ; 1.2066058683191552E9 ; 1.6867779796684935E9 ; 3.8510621037884026E10 ; 0.0
41 ; 4.4190584496710934E7 ; 1.2066475732705538E9 ; 1.7309306132838206E9 ; 3.971722690620318E10 ; 0.0
42 ; 4.421657942327932E7 ; 1.2066902386572585E9 ; 1.7751211977805316E9 ; 4.092387447947373E10 ; 0.0
43 ; 4.4250455203824766E7 ; 1.2067338363568597E9 ; 1.819337777203811E9 ; 4.213056471813099E10 ; 0.0
44 ; 4.427480255596272E7 ; 1.2067783385993843E9 ; 1.8635882324076357E9 ; 4.333729855448785E10 ; 0.0
45 ; 4.4305045185204715E7 ; 1.206823718003029E9 ; 1.9078630349635985E9 ; 4.4544076893087234E10 ; 0.0
46 ; 4.432670129613918E7 ; 1.2068699476054988E9 ; 1.9521680801488032E9 ; 4.575090061109026E10 ; 0.0
47 ; 4.434649060526095E7 ; 1.2069170008911827E9 ; 1.9964947814449425E9 ; 4.695777055869576E10 ; 0.0
48 ; 4.436768081918523E7 ; 1.2069648518144045E9 ; 2.0408412720502033E9 ; 4.8164687559586945E10 ; 0.0
49 ; 4.4381165156926244E7 ; 1.2070134748189921E9 ; 2.0852089528693886E9 ; 4.937165241140135E10 ; 0.0
50 ; 4.4400085077680804E7 ; 1.2070628448544219E9 ; 2.1295901180263147E9 ; 5.0578665886220345E10 ; 0.0
51 ; 4.441657026216304E7 ; 1.2071129373887782E9 ; 2.1739902031039953E9 ; 5.178572873107477E10 ; 0.0
52 ; 4.443207265635888E7 ; 1.2071637284187863E9 ; 2.2184067733661585E9 ; 5.299284166846355E10 ; 0.0
53 ; 4.444295170341656E7 ; 1.2072151944771476E9 ; 2.262838846022517E9 ; 5.420000539688233E10 ; 0.0
54 ; 4.445769313784531E7 ; 1.2072673126374228E9 ; 2.3072817977259336E9 ; 5.540722059135948E10 ; 0.0
55 ; 4.446631771588682E7 ; 1.2073200605166798E9 ; 2.351739490863779E9 ; 5.66144879039969E10 ; 0.0
56 ; 4.4477184424864076E7 ; 1.2073734162761269E9 ; 2.3962058085796657E9 ; 5.782180796451358E10 ; 0.0
57 ; 4.4487296500682294E7 ; 1.2074273586199343E9 ; 2.44068299300453E9 ; 5.90291813807897E10 ; 0.0
58 ; 4.449281745368595E7 ; 1.2074818667924366E9 ; 2.4851702895052123E9 ; 6.023660873940964E10 ; 0.0
59 ; 4.450382266953726E7 ; 1.2075369205739005E9 ; 2.529663106958898E9 ; 6.144409060620207E10 ; 0.0
60 ; 4.452591855253288E7 ; 1.2075925002750247E9 ; 2.574166929628435E9 ; 6.265162752677597E10 ; 0.0
61 ; 4.4533431259553395E7 ; 1.2076485867303317E9 ; 2.618692848180968E9 ; 6.3859220027050995E10 ; 0.0
62 ; 4.454518782262767E7 ; 1.207705161290598E9 ; 2.6632262794405212E9 ; 6.506686861378133E10 ; 0.0
63 ; 4.455257080654001E7 ; 1.2077622058144565E9 ; 2.707771467263149E9 ; 6.627457377507192E10 ; 0.0
64 ; 4.45593039766477E7 ; 1.2078197026592965E9 ; 2.752324038069689E9 ; 6.7482335980886375E10 ; 0.0
65 ; 4.456831601996179E7 ; 1.2078776346715736E9 ; 2.7968833420463367E9 ; 6.869015568354567E10 ; 0.0
66 ; 4.457478128596799E7 ; 1.207935985176633E9 ; 2.8414516580662985E9 ; 6.989803331821724E10 ; 0.0
67 ; 4.458544958964568E7 ; 1.2079947379681416E9 ; 2.8860264393522663E9 ; 7.110596930339388E10 ; 0.0
68 ; 4.4587877071745336E7 ; 1.2080538772972107E9 ; 2.930611888941912E9 ; 7.231396404136201E10 ; 0.0
69 ; 4.459627280840129E7 ; 1.2081133878612885E9 ; 2.9751997660136576E9 ; 7.352201791865923E10 ; 0.0
70 ; 4.460570511185396E7 ; 1.20817325479289E9 ; 3.0197960388220587E9 ; 7.473013130652051E10 ; 0.0
71 ; 4.461326720666766E7 ; 1.2082334636482224E9 ; 3.0644017439339128E9 ; 7.59383045613134E10 ; 0.0
72 ; 4.461479434625968E7 ; 1.2082940003957663E9 ; 3.10901501114058E9 ; 7.714653802496162E10 ; 0.0
73 ; 4.4616737985687405E7 ; 1.208354851404855E9 ; 3.15362980548684E9 ; 7.835483202535739E10 ; 0.0
74 ; 4.462849199619366E7 ; 1.2084160034342988E9 ; 3.198246543472527E9 ; 7.956318687676225E10 ; 0.0
75 ; 4.462984046651146E7 ; 1.2084774436210866E9 ; 3.242875035468721E9 ; 8.077160288019655E10 ; 0.0
76 ; 4.4635276640693754E7 ; 1.2085391594692008E9 ; 3.287504875935232E9 ; 8.198008032381764E10 ; 0.0
77 ; 4.4638155310930215E7 ; 1.2086011388385727E9 ; 3.332140152575926E9 ; 8.318861948328685E10 ; 0.0
78 ; 4.462659221769708E7 ; 1.208663369934199E9 ; 3.376778307886856E9 ; 8.439722062212543E10 ; 0.0
79 ; 4.46144823774325E7 ; 1.2087258412954454E9 ; 3.421404900104553E9 ; 8.560588399205963E10 ; 0.0
80 ; 4.460380434855516E7 ; 1.2087885417855468E9 ; 3.4660193824819856E9 ; 8.681460983335507E10 ; 0.0
81 ; 4.4595714475072E7 ; 1.2088514605813262E9 ; 3.5106231868305407E9 ; 8.802339837514062E10 ; 0.0
82 ; 4.458370007012785E7 ; 1.2089145871631377E9 ; 3.5552189013056126E9 ; 8.923224983572195E10 ; 0.0
83 ; 4.457036481209913E7 ; 1.2089779113050432E9 ; 3.5998026013757405E9 ; 9.044116442288509E10 ; 0.0
84 ; 4.456712404844975E7 ; 1.2090414230652351E9 ; 3.6443729661878395E9 ; 9.165014233419012E10 ; 0.0
85 ; 4.45522400377551E7 ; 1.2091051127767012E9 ; 3.688940090236289E9 ; 9.285918375725536E10 ; 0.0
86 ; 4.453663354010546E7 ; 1.2091689710381439E9 ; 3.733492330274044E9 ; 9.406828887003206E10 ; 0.0
87 ; 4.4525511882869236E7 ; 1.2092329887051513E9 ; 3.7780289638141494E9 ; 9.52774578410702E10 ; 0.0
88 ; 4.4508146863693416E7 ; 1.20929715688162E9 ; 3.8225544756970186E9 ; 9.648669082977536E10 ; 0.0
89 ; 4.4497073473478906E7 ; 1.209361466911431E9 ; 3.867062622560712E9 ; 9.769598798665698E10 ; 0.0
90 ; 4.448486091038766E7 ; 1.2094259103703806E9 ; 3.9115596960341907E9 ; 9.890534945356842E10 ; 0.0
91 ; 4.4465255438467726E7 ; 1.2094904790583546E9 ; 3.956044556944578E9 ; 1.001147753639388E11 ; 0.0
92 ; 4.445311585449952E7 ; 1.2095551649917545E9 ; 4.0005098123830457E9 ; 1.0132426584299715E11 ; 0.0
93 ; 4.443473834146586E7 ; 1.2096199603961637E9 ; 4.044962928237545E9 ; 1.025338210079889E11 ; 0.0
94 ; 4.442322373648612E7 ; 1.2096848576992528E9 ; 4.089397666579011E9 ; 1.0374344096838507E11 ; 0.0
95 ; 4.4402136447276115E7 ; 1.2097498495239205E9 ; 4.133820890315497E9 ; 1.0495312582608432E11 ; 0.0
96 ; 4.4384475805408195E7 ; 1.209814928681662E9 ; 4.178223026762773E9 ; 1.0616287567560825E11 ; 0.0
97 ; 4.436833147620876E7 ; 1.2098800881661658E9 ; 4.222607502568181E9 ; 1.073726906042899E11 ; 0.0
98 ; 4.43524564849862E7 ; 1.2099453211471236E9 ; 4.2669758340443897E9 ; 1.0858257069245607E11 ; 0.0
99 ; 4.4340333940413594E7 ; 1.2100106209642603E9 ; 4.311328290529376E9 ; 1.097925160136032E11 ; 0.0
100 ; 4.431092088152456E7 ; 1.2100759811215677E9 ; 4.3556686244697895E9 ; 1.1100252663456746E11 ; 0.0
101 ; 4.4295051545354635E7 ; 1.2101413952817423E9 ; 4.399979545351315E9 ; 1.1221260261568903E11 ; 0.0
102 ; 4.427566801557952E7 ; 1.2102068572608185E9 ; 4.444274596896669E9 ; 1.1342274401097076E11 ; 0.0
103 ; 4.4249984668567985E7 ; 1.2102723610229945E9 ; 4.488550264912249E9 ; 1.1463295086823158E11 ; 0.0
104 ; 4.423751980973454E7 ; 1.2103379006756408E9 ; 4.532800249580816E9 ; 1.1584322322925458E11 ; 0.0
105 ; 4.4218006322518945E7 ; 1.2104034704644892E9 ; 4.577037769390551E9 ; 1.1705356112993022E11 ; 0.0
106 ; 4.419568747299717E7 ; 1.2104690647689958E9 ; 4.62125577571307E9 ; 1.1826396460039471E11 ; 0.0
107 ; 4.417499551301449E7 ; 1.2105346780978703E9 ; 4.665451463186067E9 ; 1.1947443366516371E11 ; 0.0
108 ; 4.415499576421976E7 ; 1.2106003050847692E9 ; 4.709626458699081E9 ; 1.2068496834326158E11 ; 0.0
109 ; 4.4131567304104954E7 ; 1.2106659404841442E9 ; 4.753781454463301E9 ; 1.2189556864834634E11 ; 0.0
110 ; 4.410657290195534E7 ; 1.2107315791672451E9 ; 4.7979130217674055E9 ; 1.2310623458883049E11 ; 0.0
111 ; 4.408757901632651E7 ; 1.2107972161182637E9 ; 4.842019594669361E9 ; 1.2431696616799774E11 ; 0.0
112 ; 4.40546711552421E7 ; 1.2108628464306262E9 ; 4.886107173685688E9 ; 1.2552776338411601E11 ; 0.0
113 ; 4.4045010154765666E7 ; 1.2109284653034134E9 ; 4.93016184484093E9 ; 1.2673862623054665E11 ; 0.0
114 ; 4.401104568521062E7 ; 1.2109940680379202E9 ; 4.974206854995696E9 ; 1.2794955469585007E11 ; 0.0
115 ; 4.398813526530766E7 ; 1.2110596500343359E9 ; 5.018217900680906E9 ; 1.2916054876388799E11 ; 0.0
116 ; 4.396075759885188E7 ; 1.2111252067885497E9 ; 5.062206035946214E9 ; 1.3037160841392232E11 ; 0.0
117 ; 4.393552286262216E7 ; 1.2111907338890715E9 ; 5.106166793545066E9 ; 1.3158273362071086E11 ; 0.0
118 ; 4.391463777532912E7 ; 1.2112562270140688E9 ; 5.150102316407688E9 ; 1.3279392435459993E11 ; 0.0
119 ; 4.389125980514131E7 ; 1.211321681928509E9 ; 5.194016954183018E9 ; 1.34005180581614E11 ; 0.0
120 ; 4.3861488491383776E7 ; 1.2113870944814105E9 ; 5.237908213988159E9 ; 1.3521650226354251E11 ; 0.0
121 ; 4.3827149462126285E7 ; 1.2114524606031919E9 ; 5.281769702479543E9 ; 1.3642788935802393E11 ; 0.0
122 ; 4.380330660778791E7 ; 1.2115177763031197E9 ; 5.325596851941669E9 ; 1.376393418186271E11 ; 0.0
123 ; 4.377330626135642E7 ; 1.2115830376668491E9 ; 5.369400158549458E9 ; 1.3885085959493024E11 ; 0.0
124 ; 4.3749910808059305E7 ; 1.2116482408540573E9 ; 5.413173464810814E9 ; 1.4006244263259708E11 ; 0.0
125 ; 4.372578771680101E7 ; 1.2117133820961595E9 ; 5.456923375618874E9 ; 1.4127409087345114E11 ; 0.0
126 ; 4.368955257453829E7 ; 1.2117784576941104E9 ; 5.500649163335674E9 ; 1.424858042555473E11 ; 0.0
127 ; 4.366131291380973E7 ; 1.2118434640162873E9 ; 5.5443387159102125E9 ; 1.4369758271324142E11 ; 0.0
128 ; 4.362592102859819E7 ; 1.2119083974964476E9 ; 5.588000028824022E9 ; 1.4490942617725772E11 ; 0.0
129 ; 4.360027724592167E7 ; 1.2119732546317625E9 ; 5.63162594985262E9 ; 1.4612133457475418E11 ; 0.0
130 ; 4.3564318555298604E7 ; 1.2120380319809213E9 ; 5.675226227098542E9 ; 1.4733330782938596E11 ; 0.0
131 ; 4.3527410305157155E7 ; 1.2121027261623056E9 ; 5.718790545653841E9 ; 1.4854534586136688E11 ; 0.0
132 ; 4.347766926246219E7 ; 1.2121673338522267E9 ; 5.762317955958998E9 ; 1.4975744858752917E11 ; 0.0
133 ; 4.3430657239723265E7 ; 1.2122318517832303E9 ; 5.80579562522146E9 ; 1.509696159213814E11 ; 0.0
134 ; 4.338858668505408E7 ; 1.21229627674246E9 ; 5.849226282461184E9 ; 1.5218184777316464E11 ; 0.0
135 ; 4.334115422950964E7 ; 1.2123606055700786E9 ; 5.892614869146237E9 ; 1.533941440499071E11 ; 0.0
136 ; 4.329668662322832E7 ; 1.2124248351577506E9 ; 5.935956023375747E9 ; 1.5460650465547717E11 ; 0.0
137 ; 4.324700369920375E7 ; 1.212488962447173E9 ; 5.979252709998975E9 ; 1.5581892949063492E11 ; 0.0
138 ; 4.320796828443426E7 ; 1.2125529844286635E9 ; 6.022499713698178E9 ; 1.570314184530821E11 ; 0.0
139 ; 4.315762027038607E7 ; 1.2126168981397943E9 ; 6.065707681982613E9 ; 1.5824397143751074E11 ; 0.0
140 ; 4.310711092187785E7 ; 1.2126807006640809E9 ; 6.108865302252998E9 ; 1.5945658833565054E11 ; 0.0
141 ; 4.305612349217253E7 ; 1.2127443891297095E9 ; 6.151972413174876E9 ; 1.6066926903631464E11 ; 0.0
142 ; 4.300860768533046E7 ; 1.2128079607083168E9 ; 6.195028536667048E9 ; 1.6188201342544434E11 ; 0.0
143 ; 4.29617404400325E7 ; 1.2128714126138062E9 ; 6.238037144352379E9 ; 1.6309482138615265E11 ; 0.0
144 ; 4.291077083953881E7 ; 1.2129347421012118E9 ; 6.280998884792412E9 ; 1.6430769279876645E11 ; 0.0
145 ; 4.2883353706995465E7 ; 1.2129979464655964E9 ; 6.32390965563195E9 ; 1.6552062754086768E11 ; 0.0
146 ; 4.2851178542851776E7 ; 1.2130610230409932E9 ; 6.366793009338945E9 ; 1.6673362548733328E11 ; 0.0
147 ; 4.282200656281494E7 ; 1.2131239691993804E9 ; 6.409644187881797E9 ; 1.6794668651037427E11 ; 0.0
148 ; 4.278259661953793E7 ; 1.2131867823496933E9 ; 6.452466194444612E9 ; 1.6915981047957364E11 ; 0.0
149 ; 4.274977882616304E7 ; 1.2132494599368715E9 ; 6.49524879106415E9 ; 1.7037299726192334E11 ; 0.0
150 ; 4.2714107479472E7 ; 1.213311999440937E9 ; 6.537998569890313E9 ; 1.715862467218602E11 ; 0.0
151 ; 4.268132957038925E7 ; 1.2133743983761044E9 ; 6.580712677369785E9 ; 1.7279955872130115E11 ; 0.0
152 ; 4.264624717699998E7 ; 1.2134366542899241E9 ; 6.623394006940174E9 ; 1.7401293311967725E11 ; 0.0
153 ; 4.262091617407644E7 ; 1.2134987647624521E9 ; 6.666040254117174E9 ; 1.7522636977396716E11 ; 0.0
154 ; 4.2580467243620776E7 ; 1.213560727405449E9 ; 6.70866117029125E9 ; 1.764398685387296E11 ; 0.0
155 ; 4.2544518952932194E7 ; 1.2136225398616064E9 ; 6.751241637534871E9 ; 1.7765342926613507E11 ; 0.0
156 ; 4.2512043659288526E7 ; 1.2136841998038006E9 ; 6.793786156487803E9 ; 1.7886705180599667E11 ; 0.0
157 ; 4.248322224520484E7 ; 1.21374570493437E9 ; 6.836298200147092E9 ; 1.8008073600580048E11 ; 0.0
158 ; 4.244997194791441E7 ; 1.2138070529844177E9 ; 6.878781422392297E9 ; 1.8129448171073483E11 ; 0.0
159 ; 4.240992442278767E7 ; 1.2138682417131376E9 ; 6.921231394340211E9 ; 1.8250828876371924E11 ; 0.0
160 ; 4.237006953549663E7 ; 1.2139292689071631E9 ; 6.963641318762999E9 ; 1.8372215700543237E11 ; 0.0
161 ; 4.234026679369146E7 ; 1.2139901323799374E9 ; 7.006011388298495E9 ; 1.8493608627433954E11 ; 0.0
162 ; 4.230300149456489E7 ; 1.214050829971105E9 ; 7.048351655092187E9 ; 1.8615007640671948E11 ; 0.0
163 ; 4.227118670907615E7 ; 1.2141113595459242E9 ; 7.090654656586752E9 ; 1.8736412723669058E11 ; 0.0
164 ; 4.222653291871536E7 ; 1.214171718994697E9 ; 7.132925843295828E9 ; 1.885782385962365E11 ; 0.0
165 ; 4.2198311054146364E7 ; 1.2142319062322211E9 ; 7.175152376214543E9 ; 1.897924103152312E11 ; 0.0
166 ; 4.216387356162149E7 ; 1.2142919191972568E9 ; 7.21735068726869E9 ; 1.910066422214634E11 ; 0.0
167 ; 4.212864536102603E7 ; 1.2143517558520136E9 ; 7.259514560830312E9 ; 1.9222093414066068E11 ; 0.0
168 ; 4.208754141510956E7 ; 1.2144114141816523E9 ; 7.301643206191338E9 ; 1.934352858965127E11 ; 0.0
169 ; 4.2056290280095294E7 ; 1.2144708921938052E9 ; 7.343730747606447E9 ; 1.9464969731069434E11 ; 0.0
170 ; 4.201506177114627E7 ; 1.2145301879181101E9 ; 7.385787037886542E9 ; 1.9586416820288815E11 ; 0.0
171 ; 4.197568930258578E7 ; 1.2145892994057598E9 ; 7.427802099657688E9 ; 1.9707869839080627E11 ; 0.0
172 ; 4.193798745833865E7 ; 1.214648224729068E9 ; 7.469777788960274E9 ; 1.9829328769021204E11 ; 0.0
173 ; 4.190858229633689E7 ; 1.2147069619810467E9 ; 7.5117157764186125E9 ; 1.995079359149411E11 ; 0.0
174 ; 4.188988606566224E7 ; 1.2147655092749987E9 ; 7.55362435871495E9 ; 2.0072264287692215E11 ; 0.0
175 ; 4.1872158610761076E7 ; 1.2148238647441244E9 ; 7.595514244780612E9 ; 2.0193740838619714E11 ; 0.0
176 ; 4.184127856357226E7 ; 1.214882026541138E9 ; 7.637386403391373E9 ; 2.0315223225094125E11 ; 0.0
177 ; 4.1822127389582165E7 ; 1.214939992837899E9 ; 7.679227681954945E9 ; 2.043671142774824E11 ; 0.0
178 ; 4.179753196532647E7 ; 1.214997761825055E9 ; 7.721049809344527E9 ; 2.0558205427032028E11 ; 0.0
179 ; 4.177442465025508E7 ; 1.2150553317116926E9 ; 7.762847341309854E9 ; 2.0679705203214532E11 ; 0.0
180 ; 4.17557626286619E7 ; 1.2151127007250066E9 ; 7.804621765960109E9 ; 2.0801210736385703E11 ; 0.0
181 ; 4.172515556097107E7 ; 1.2151698671099706E9 ; 7.846377528588771E9 ; 2.0922722006458203E11 ; 0.0
182 ; 4.170340058454678E7 ; 1.2152268291290262E9 ; 7.888102684149742E9 ; 2.1044238993169202E11 ; 0.0
183 ; 4.168347589585758E7 ; 1.2152835850617762E9 ; 7.929806084734289E9 ; 2.1165761676082104E11 ; 0.0
184 ; 4.166035204306986E7 ; 1.2153401332046914E9 ; 7.971489560630147E9 ; 2.128729003458828E11 ; 0.0
185 ; 4.163557878560513E7 ; 1.2153964718708231E9 ; 8.013149912673217E9 ; 2.140882404790875E11 ; 0.0
186 ; 4.161316337342874E7 ; 1.215452599389529E9 ; 8.054785491458822E9 ; 2.153036369509583E11 ; 0.0
187 ; 4.159703186208574E7 ; 1.215508514106203E9 ; 8.096398654832251E9 ; 2.1651908955034784E11 ; 0.0
188 ; 4.157423204705663E7 ; 1.215564214382017E9 ; 8.137995686694336E9 ; 2.1773459806445404E11 ; 0.0
189 ; 4.154796514369433E7 ; 1.215619698593668E9 ; 8.179569918741392E9 ; 2.1895016227883606E11 ; 0.0
190 ; 4.152310110509251E7 ; 1.2156749651331367E9 ; 8.221117883885086E9 ; 2.2016578197742972E11 ; 0.0
191 ; 4.150050016027236E7 ; 1.2157300124074495E9 ; 8.262640984990178E9 ; 2.2138145694256287E11 ; 0.0
192 ; 4.148291108994911E7 ; 1.2157848388384495E9 ; 8.304141485150451E9 ; 2.225971869549703E11 ; 0.0
193 ; 4.145390048542559E7 ; 1.2158394428625767E9 ; 8.345624396240399E9 ; 2.2381297179380875E11 ; 0.0
194 ; 4.1429500614552155E7 ; 1.2158938229306514E9 ; 8.387078296725825E9 ; 2.2502881123667133E11 ; 0.0
195 ; 4.141050164981994E7 ; 1.2159479775076666E9 ; 8.428507797340378E9 ; 2.26244705059602E11 ; 0.0
196 ; 4.139047264724412E7 ; 1.2160019050725858E9 ; 8.469918298990198E9 ; 2.2746065303710965E11 ; 0.0
