CSV File for the Network on Day 16
1 - Minute m 
2 - Power Consumed at minute m 
3 - Power Produced at minute m 
4 - Energy Consumed since the beginning of the day 
5 - Energy Produced since the beginning of the day 
6 - Energy Lost since the beginning of the day 
 
0 ; 4536446.5680433065 ; 2.1049036838123143E8 ; 0.0 ; 0.0 ; 0.0
1 ; 4540537.069694804 ; 2.1079170974507076E8 ; 4536446.5680433065 ; 2.1049036838123143E8 ; 356.14
2 ; 4545463.27836819 ; 2.1171080869984472E8 ; 9076983.63773811 ; 4.212820781263022E8 ; 712.28
3 ; 4549616.19491265 ; 2.1324773152493775E8 ; 1.36224469161063E7 ; 6.329928868261468E8 ; 1068.42
4 ; 4554241.374738586 ; 2.1540255048668247E8 ; 1.817206311101895E7 ; 8.462406183510846E8 ; 1424.56
5 ; 4557416.628318708 ; 2.181753421572159E8 ; 2.2726304485757533E7 ; 1.0616431688377671E9 ; 1780.6999999999998
6 ; 4562809.908034741 ; 2.215661845702845E8 ; 2.728372111407624E7 ; 1.279818510994983E9 ; 2136.8399999999997
7 ; 4566490.446003075 ; 2.2557515310868287E8 ; 3.1846531022110984E7 ; 1.5013846955652676E9 ; 2492.9799999999996
8 ; 4568237.715335452 ; 2.3020231529265863E8 ; 3.6413021468114056E7 ; 1.7269598486739504E9 ; 2849.1199999999994
9 ; 4574080.393822346 ; 2.354477250259747E8 ; 4.098125918344951E7 ; 1.957162163966609E9 ; 3205.2599999999993
10 ; 4575808.329831664 ; 2.4131141723772734E8 ; 4.555533957727185E7 ; 2.1926098889925838E9 ; 3561.399999999999
11 ; 4579471.366989452 ; 2.4779340403832042E8 ; 5.0131147907103516E7 ; 2.433921306230311E9 ; 3917.539999999999
12 ; 4583778.864412869 ; 2.5489367331735003E8 ; 5.471061927409297E7 ; 2.6817147102686315E9 ; 4273.679999999999
13 ; 4587091.152027524 ; 2.626121901457199E8 ; 5.929439813850584E7 ; 2.9366083835859814E9 ; 4629.82
14 ; 4590582.263145133 ; 2.7094890061966723E8 ; 6.3881489290533364E7 ; 3.1992205737317014E9 ; 4985.96
15 ; 4594105.859369032 ; 2.7990373721894425E8 ; 6.84720715536785E7 ; 3.4701694743513684E9 ; 5342.1
16 ; 4596923.061868109 ; 2.8947662456075656E8 ; 7.306617741304752E7 ; 3.7500732115703125E9 ; 5698.240000000001
17 ; 4599841.871351368 ; 2.996674846113575E8 ; 7.766310047491562E7 ; 4.039549836131069E9 ; 6054.380000000001
18 ; 4602027.910002045 ; 3.1047624079861015E8 ; 8.226294234626698E7 ; 4.339217320742427E9 ; 6410.520000000001
19 ; 4603860.112773064 ; 3.2190282085618186E8 ; 8.686497025626904E7 ; 4.649693561541037E9 ; 6766.660000000002
20 ; 4606558.287283673 ; 3.3394715850468814E8 ; 9.14688303690421E7 ; 4.971596382397219E9 ; 7122.800000000002
21 ; 4611300.328339066 ; 3.4660919421137065E8 ; 9.607538865632577E7 ; 5.305543540901907E9 ; 7478.940000000002
22 ; 4615445.341585913 ; 3.5988887529885495E8 ; 1.0068668898466484E8 ; 5.652152735113277E9 ; 7835.080000000003
23 ; 4618189.886961403 ; 3.7378615564156055E8 ; 1.0530213432625076E8 ; 6.012041610412132E9 ; 8191.220000000003
24 ; 4623053.80428172 ; 3.8830099513320607E8 ; 1.0992032421321216E8 ; 6.385827766053693E9 ; 8547.360000000002
25 ; 4625959.794268827 ; 4.0080944084959954E8 ; 1.1454337801749389E8 ; 6.774128761186899E9 ; 8903.500000000002
26 ; 4627798.402474469 ; 4.0081855846960384E8 ; 1.1916933781176272E8 ; 7.174938202036499E9 ; 9259.640000000001
27 ; 4631322.561436054 ; 4.008278607007793E8 ; 1.2379713621423718E8 ; 7.575756760506103E9 ; 9615.78
28 ; 4632305.251557886 ; 4.008373252022391E8 ; 1.2842845877567324E8 ; 7.9765846212068815E9 ; 9971.92
29 ; 4636315.356758586 ; 4.008469326640284E8 ; 1.3306076402723113E8 ; 8.377421946409121E9 ; 10328.06
30 ; 4635505.381893818 ; 4.008566663649229E8 ; 1.3769707938398972E8 ; 8.778268879073149E9 ; 10684.199999999999
31 ; 4644414.687085901 ; 4.0086651179164463E8 ; 1.4233258476588354E8 ; 9.179125545438072E9 ; 11040.339999999998
32 ; 4644933.83709623 ; 4.008764563136798E8 ; 1.4697699945296943E8 ; 9.579992057229717E9 ; 11396.479999999998
33 ; 4647384.502961683 ; 4.0088648890704817E8 ; 1.5162193329006568E8 ; 9.980868513543398E9 ; 11752.619999999997
34 ; 4649274.357922097 ; 4.008965999203955E8 ; 1.5626931779302737E8 ; 1.0381755002450445E10 ; 12108.759999999997
35 ; 4648903.463959477 ; 4.0090678087723875E8 ; 1.6091859215094948E8 ; 1.078265160237084E10 ; 12464.899999999996
36 ; 4653691.130137279 ; 4.00917024308845E8 ; 1.6556749561490896E8 ; 1.118355838324808E10 ; 12821.039999999995
37 ; 4655023.610316651 ; 4.00927323612939E8 ; 1.7022118674504623E8 ; 1.1584475407556925E10 ; 13177.179999999995
38 ; 4657261.925580687 ; 4.009376729341171E8 ; 1.748762103553629E8 ; 1.1985402731169865E10 ; 13533.319999999994
39 ; 4659263.853809116 ; 4.0094806706247574E8 ; 1.7953347228094357E8 ; 1.2386340404103981E10 ; 13889.459999999994
40 ; 4661835.699306735 ; 4.009585013475181E8 ; 1.841927361347527E8 ; 1.2787288471166456E10 ; 14245.599999999993
41 ; 4665081.65761566 ; 4.00968971624876E8 ; 1.8885457183405942E8 ; 1.3188246972513975E10 ; 14601.739999999993
42 ; 4665525.2617803775 ; 4.009794741537957E8 ; 1.9351965349167508E8 ; 1.3589215944138851E10 ; 14957.879999999992
43 ; 4667095.66378459 ; 4.009900055636735E8 ; 1.9818517875345546E8 ; 1.3990195418292646E10 ; 15314.019999999991
44 ; 4667519.633614794 ; 4.010005628082155E8 ; 2.0285227441724005E8 ; 1.439118542385632E10 ; 15670.15999999999
45 ; 4670491.94228852 ; 4.010111431260323E8 ; 2.0751979405085486E8 ; 1.4792185986664536E10 ; 16026.29999999999
46 ; 4673331.854956087 ; 4.010217440066762E8 ; 2.1219028599314338E8 ; 1.5193197129790567E10 ; 16382.43999999999
47 ; 4673644.925328594 ; 4.010323631612934E8 ; 2.1686361784809947E8 ; 1.5594218873797243E10 ; 16738.57999999999
48 ; 4674540.109239956 ; 4.0104299849719775E8 ; 2.2153726277342805E8 ; 1.5995251236958536E10 ; 17094.71999999999
49 ; 4676385.2239699345 ; 4.010536480957855E8 ; 2.2621180288266802E8 ; 1.6396294235455734E10 ; 17450.85999999999
50 ; 4678006.344388924 ; 4.010643101933036E8 ; 2.3088818810663795E8 ; 1.679734788355152E10 ; 17806.99999999999
51 ; 4678231.479844407 ; 4.010749831640606E8 ; 2.355661944510269E8 ; 1.7198412193744823E10 ; 18163.13999999999
52 ; 4679276.274842832 ; 4.010856655057349E8 ; 2.402444259308713E8 ; 1.7599487176908882E10 ; 18519.279999999988
53 ; 4678268.882740984 ; 4.0109635582648695E8 ; 2.4492370220571414E8 ; 1.8000572842414616E10 ; 18875.419999999987
54 ; 4678113.8179677855 ; 4.011070528336273E8 ; 2.496019710884551E8 ; 1.8401669198241104E10 ; 19231.559999999987
55 ; 4679686.827140946 ; 4.0111775532363105E8 ; 2.5428008490642288E8 ; 1.880277625107473E10 ; 19587.699999999986
56 ; 4680128.0453390125 ; 4.011284621733179E8 ; 2.5895977173356384E8 ; 1.920389400639836E10 ; 19943.839999999986
57 ; 4684265.233331306 ; 4.011391723320457E8 ; 2.6363989977890286E8 ; 1.960502246857168E10 ; 20299.979999999985
58 ; 4682018.3167435285 ; 4.011498848147857E8 ; 2.6832416501223415E8 ; 2.0006161640903725E10 ; 20656.119999999984
59 ; 4685642.4398037 ; 4.011605986959683E8 ; 2.730061833289777E8 ; 2.040731152571851E10 ; 21012.259999999984
60 ; 4683281.342517955 ; 4.011713131040019E8 ; 2.776918257687814E8 ; 2.080847212441448E10 ; 21368.399999999983
61 ; 4685997.403835227 ; 4.011820272163818E8 ; 2.823751071112994E8 ; 2.120964343751848E10 ; 21724.539999999983
62 ; 4688044.861154885 ; 4.011927402553175E8 ; 2.8706110451513463E8 ; 2.161082546473486E10 ; 22080.679999999982
63 ; 4687973.766040466 ; 4.012034514838169E8 ; 2.9174914937628955E8 ; 2.2012018204990177E10 ; 22436.81999999998
64 ; 4689909.145078159 ; 4.0121416020217204E8 ; 2.9643712314233E8 ; 2.2413221656473995E10 ; 22792.95999999998
65 ; 4690359.423202466 ; 4.012248657448009E8 ; 3.011270322874082E8 ; 2.2814435816676167E10 ; 23149.09999999998
66 ; 4692731.260277238 ; 4.012355674774042E8 ; 3.058173917106106E8 ; 2.3215660682420967E10 ; 23505.23999999998
67 ; 4691960.271150204 ; 4.012462647944008E8 ; 3.1051012297088784E8 ; 2.3616896249898373E10 ; 23861.37999999998
68 ; 4692721.164432948 ; 4.012569571166122E8 ; 3.152020832420381E8 ; 2.4018142514692772E10 ; 24217.51999999998
69 ; 4690518.178977243 ; 4.0126764388916695E8 ; 3.19894804406471E8 ; 2.4419399471809383E10 ; 24573.659999999978
70 ; 4690759.070817898 ; 4.012783245796025E8 ; 3.2458532258544827E8 ; 2.482066711569855E10 ; 24929.799999999977
71 ; 4692915.927658317 ; 4.0128899867614317E8 ; 3.2927608165626615E8 ; 2.5221945440278152E10 ; 25285.939999999977
72 ; 4690529.12125759 ; 4.012996656861354E8 ; 3.339689975839245E8 ; 2.5623234438954296E10 ; 25642.079999999976
73 ; 4692592.725837753 ; 4.013103251346234E8 ; 3.386595267051821E8 ; 2.602453410464043E10 ; 25998.219999999976
74 ; 4694574.215165313 ; 4.013209765630526E8 ; 3.4335211943101984E8 ; 2.6425844429775055E10 ; 26354.359999999975
75 ; 4690751.428395958 ; 4.0133161952808595E8 ; 3.4804669364618516E8 ; 2.6827165406338108E10 ; 26710.499999999975
76 ; 4691523.877428544 ; 4.01342253600523E8 ; 3.5273744507458115E8 ; 2.7228497025866196E10 ; 27066.639999999974
77 ; 4691132.519310909 ; 4.0135287836431134E8 ; 3.574289689520097E8 ; 2.762983927946672E10 ; 27422.779999999973
78 ; 4692673.062117694 ; 4.013634934156414E8 ; 3.6212010147132057E8 ; 2.803119215783103E10 ; 27778.919999999973
79 ; 4692157.9440279575 ; 4.013740983621166E8 ; 3.6681277453343827E8 ; 2.8432555651246674E10 ; 28135.059999999972
80 ; 4692406.645979604 ; 4.013846928219917E8 ; 3.715049324774662E8 ; 2.883392974960879E10 ; 28491.19999999997
81 ; 4691490.830848683 ; 4.013952764234729E8 ; 3.761973391234458E8 ; 2.9235314442430782E10 ; 28847.33999999997
82 ; 4691860.718778303 ; 4.014058488040745E8 ; 3.808888299542945E8 ; 2.9636709718854256E10 ; 29203.47999999997
83 ; 4690966.908832104 ; 4.0141640961002624E8 ; 3.855806906730728E8 ; 3.003811556765833E10 ; 29559.61999999997
84 ; 4690115.325764491 ; 4.014269584957264E8 ; 3.9027165758190495E8 ; 3.0439531977268356E10 ; 29915.75999999997
85 ; 4692329.096860818 ; 4.014374951232389E8 ; 3.949617729076694E8 ; 3.0840958935764084E10 ; 30271.89999999997
86 ; 4691073.8599496875 ; 4.01448019161827E8 ; 3.9965410200453025E8 ; 3.124239643088732E10 ; 30628.039999999968
87 ; 4690382.477958124 ; 4.014585302875236E8 ; 4.0434517586447996E8 ; 3.164384445004915E10 ; 30984.179999999968
88 ; 4690318.6608296195 ; 4.014690281827331E8 ; 4.090355583424381E8 ; 3.2045302980336674E10 ; 31340.319999999967
89 ; 4691352.575281863 ; 4.014795125358625E8 ; 4.137258770032677E8 ; 3.2446772008519405E10 ; 31696.459999999966
90 ; 4690931.673915592 ; 4.014899830409801E8 ; 4.1841722957854956E8 ; 3.2848251521055267E10 ; 32052.599999999966
91 ; 4688288.146449793 ; 4.015004393974986E8 ; 4.231081612524651E8 ; 3.324974150409625E10 ; 32408.739999999965
92 ; 4689709.944279619 ; 4.0151088130988055E8 ; 4.2779644939891493E8 ; 3.3651241943493748E10 ; 32764.879999999965
93 ; 4687301.128386622 ; 4.015213084873653E8 ; 4.3248615934319454E8 ; 3.4052752824803627E10 ; 33121.01999999997
94 ; 4687990.462773903 ; 4.0153172064371455E8 ; 4.3717346047158116E8 ; 3.445427413329099E10 ; 33477.15999999997
95 ; 4686991.563455842 ; 4.01542117496976E8 ; 4.418614509343551E8 ; 3.485580585393471E10 ; 33833.29999999997
96 ; 4684848.072452339 ; 4.01552498769263E8 ; 4.465484424978109E8 ; 3.525734797143169E10 ; 34189.439999999966
97 ; 4683507.723576344 ; 4.0156286418654925E8 ; 4.5123329057026327E8 ; 3.565890047020095E10 ; 34545.579999999965
98 ; 4682797.3929780945 ; 4.015732134784771E8 ; 4.5591679829383963E8 ; 3.60604633343875E10 ; 34901.719999999965
99 ; 4683244.667259375 ; 4.0158354637817955E8 ; 4.605995956868177E8 ; 3.6462036547865974E10 ; 35257.859999999964
100 ; 4682023.260188597 ; 4.015938626221125E8 ; 4.652828403540771E8 ; 3.6863620094244156E10 ; 35613.99999999996
101 ; 4680590.0361843305 ; 4.016041619498998E8 ; 4.699648636142657E8 ; 3.726521395686627E10 ; 35970.13999999996
102 ; 4678881.938265584 ; 4.0161444410418683E8 ; 4.7464545365045E8 ; 3.766681811881617E10 ; 36326.27999999996
103 ; 4677498.513477727 ; 4.016247088305043E8 ; 4.7932433558871555E8 ; 3.806843256292036E10 ; 36682.41999999996
104 ; 4679198.360807223 ; 4.016349558771408E8 ; 4.840018341021933E8 ; 3.847005727175086E10 ; 37038.55999999996
105 ; 4678366.371432616 ; 4.0164518499502313E8 ; 4.8868103246300054E8 ; 3.8871692227628006E10 ; 37394.69999999996
106 ; 4676610.513645174 ; 4.01655395937604E8 ; 4.9335939883443314E8 ; 3.927333741262303E10 ; 37750.83999999996
107 ; 4674479.252709139 ; 4.016655884607575E8 ; 4.980360093480783E8 ; 3.967499280856064E10 ; 38106.97999999996
108 ; 4672514.8218910545 ; 4.0167576232268E8 ; 5.0271048860078746E8 ; 4.007665839702139E10 ; 38463.11999999996
109 ; 4673155.140334894 ; 4.016859172837981E8 ; 5.0738300342267853E8 ; 4.047833415934407E10 ; 38819.25999999996
110 ; 4671219.488720781 ; 4.0169605310668135E8 ; 5.1205615856301343E8 ; 4.088002007662787E10 ; 39175.39999999996
111 ; 4670034.456338898 ; 4.0170616955596113E8 ; 5.167273780517342E8 ; 4.128171612973455E10 ; 39531.53999999996
112 ; 4668638.1396829095 ; 4.017162663982533E8 ; 5.213974125080731E8 ; 4.168342229929051E10 ; 39887.67999999996
113 ; 4667465.514471853 ; 4.017263434020869E8 ; 5.26066050647756E8 ; 4.208513856568877E10 ; 40243.819999999956
114 ; 4664521.59414485 ; 4.017364003378355E8 ; 5.307335161622278E8 ; 4.248686490909085E10 ; 40599.959999999955
115 ; 4664868.696954563 ; 4.0174643697765386E8 ; 5.3539803775637263E8 ; 4.288860130942869E10 ; 40956.099999999955
116 ; 4662636.269050512 ; 4.017564530954176E8 ; 5.400629064533272E8 ; 4.329034774640634E10 ; 41312.239999999954
117 ; 4660451.218047853 ; 4.017664484666668E8 ; 5.447255427223777E8 ; 4.369210419950176E10 ; 41668.379999999954
118 ; 4660144.121809954 ; 4.017764228685524E8 ; 5.493859939404255E8 ; 4.409387064796843E10 ; 42024.51999999995
119 ; 4658949.687092221 ; 4.0178637607978606E8 ; 5.540461380622355E8 ; 4.449564707083698E10 ; 42380.65999999995
120 ; 4654180.105294397 ; 4.0179630788059294E8 ; 5.587050877493277E8 ; 4.489743344691677E10 ; 42736.79999999995
121 ; 4655870.035024126 ; 4.018062180526668E8 ; 5.63359267854622E8 ; 4.529922975479736E10 ; 43092.93999999995
122 ; 4652602.608433635 ; 4.018161063791277E8 ; 5.680151378896462E8 ; 4.570103597285003E10 ; 43449.07999999995
123 ; 4651174.6409950545 ; 4.0182597264448285E8 ; 5.726677404980798E8 ; 4.610285207922916E10 ; 43805.21999999995
124 ; 4649543.933663534 ; 4.0183581663458836E8 ; 5.773189151390748E8 ; 4.650467805187364E10 ; 44161.35999999995
125 ; 4644141.102534903 ; 4.018456381366143E8 ; 5.819684590727383E8 ; 4.690651386850823E10 ; 44517.49999999995
126 ; 4640881.816973931 ; 4.018554369390112E8 ; 5.866126001752732E8 ; 4.7308359506644844E10 ; 44873.63999999995
127 ; 4636908.486210627 ; 4.01865212831478E8 ; 5.912534819922471E8 ; 4.7710214943583855E10 ; 45229.77999999995
128 ; 4635979.729995554 ; 4.018749656049329E8 ; 5.958903904784577E8 ; 4.811208015641533E10 ; 45585.91999999995
129 ; 4632726.027269441 ; 4.018846950514846E8 ; 6.005263702084533E8 ; 4.851395512202026E10 ; 45942.05999999995
130 ; 4631312.144080475 ; 4.01894400964406E8 ; 6.051590962357228E8 ; 4.891583981707175E10 ; 46298.199999999946
131 ; 4626215.092740058 ; 4.0190408313810897E8 ; 6.097904083798033E8 ; 4.9317734218036156E10 ; 46654.339999999946
132 ; 4625947.849610217 ; 4.0191374136812043E8 ; 6.144166234725434E8 ; 4.971963830117426E10 ; 47010.479999999945
133 ; 4620443.229248202 ; 4.0192337545106006E8 ; 6.190425713221536E8 ; 5.012155204254238E10 ; 47366.619999999944
134 ; 4620132.875496617 ; 4.019329851846187E8 ; 6.236630145514017E8 ; 5.052347541799344E10 ; 47722.759999999944
135 ; 4616244.628460374 ; 4.019425703675389E8 ; 6.282831474268984E8 ; 5.0925408403178055E10 ; 48078.89999999994
136 ; 4616125.510056978 ; 4.0195213079959524E8 ; 6.328993920553588E8 ; 5.132735097354559E10 ; 48435.03999999994
137 ; 4613789.554971708 ; 4.019616662815768E8 ; 6.375155175654157E8 ; 5.172930310434519E10 ; 48791.17999999994
138 ; 4611746.5138731515 ; 4.0197117661527014E8 ; 6.421293071203874E8 ; 5.213126477062677E10 ; 49147.31999999994
139 ; 4609285.793262085 ; 4.0198066160344297E8 ; 6.467410536342605E8 ; 5.253323594724204E10 ; 49503.45999999994
140 ; 4606045.035630112 ; 4.019901210498295E8 ; 6.513503394275227E8 ; 5.293521660884548E10 ; 49859.59999999994
141 ; 4602464.585586885 ; 4.019995547591157E8 ; 6.559563844631528E8 ; 5.333720672989531E10 ; 50215.73999999994
142 ; 4600843.060928866 ; 4.020089625369259E8 ; 6.605588490487397E8 ; 5.373920628465443E10 ; 50571.87999999994
143 ; 4596284.242798598 ; 4.0201834418981004E8 ; 6.651596921096685E8 ; 5.414121524719135E10 ; 50928.01999999994
144 ; 4593375.516231697 ; 4.020276995252315E8 ; 6.697559763524671E8 ; 5.4543233591381165E10 ; 51284.15999999994
145 ; 4592926.726652822 ; 4.020370283515558E8 ; 6.743493518686987E8 ; 5.4945261290906395E10 ; 51640.29999999994
146 ; 4591730.960443203 ; 4.020463304780398E8 ; 6.789422785953516E8 ; 5.534729831925795E10 ; 51996.43999999994
147 ; 4587868.835640668 ; 4.0205560571482134E8 ; 6.835340095557948E8 ; 5.574934464973599E10 ; 52352.579999999936
148 ; 4588806.829988749 ; 4.0206485387290996E8 ; 6.881218783914355E8 ; 5.615140025545081E10 ; 52708.719999999936
149 ; 4586868.419548044 ; 4.020740747641776E8 ; 6.927106852214242E8 ; 5.655346510932372E10 ; 53064.859999999935
150 ; 4587729.501151803 ; 4.020832682013502E8 ; 6.972975536409723E8 ; 5.69555391840879E10 ; 53420.999999999935
151 ; 4586130.707833592 ; 4.0209243399799955E8 ; 7.01885283142124E8 ; 5.7357622452289246E10 ; 53777.139999999934
152 ; 4581880.072612771 ; 4.021015719685358E8 ; 7.064714138499577E8 ; 5.775971488628725E10 ; 54133.27999999993
153 ; 4582785.828546109 ; 4.0211068192820024E8 ; 7.110532939225705E8 ; 5.816181645825578E10 ; 54489.41999999993
154 ; 4581108.528906679 ; 4.0211976369305885E8 ; 7.156360797511166E8 ; 5.856392714018398E10 ; 54845.55999999993
155 ; 4580493.396610192 ; 4.0212881707999545E8 ; 7.202171882800233E8 ; 5.8966046903877045E10 ; 55201.69999999993
156 ; 4580406.950024874 ; 4.0213784190670633E8 ; 7.247976816766335E8 ; 5.936817572095704E10 ; 55557.83999999993
157 ; 4578390.289315217 ; 4.021468379916944E8 ; 7.293780886266583E8 ; 5.977031356286375E10 ; 55913.97999999993
158 ; 4578224.971251972 ; 4.021558051542639E8 ; 7.339564789159735E8 ; 6.017246040085544E10 ; 56270.11999999993
159 ; 4573911.779442311 ; 4.021647432145158E8 ; 7.385347038872255E8 ; 6.0574616206009705E10 ; 56626.25999999993
160 ; 4571715.862083425 ; 4.021736519933429E8 ; 7.431086156666678E8 ; 6.097678094922422E10 ; 56982.39999999993
161 ; 4572058.470060938 ; 4.021825313124257E8 ; 7.476803315287513E8 ; 6.137895460121756E10 ; 57338.53999999993
162 ; 4571124.593999898 ; 4.0219138099422836E8 ; 7.522523899988122E8 ; 6.178113713252998E10 ; 57694.67999999993
163 ; 4570202.588585271 ; 4.022002008619951E8 ; 7.568235145928121E8 ; 6.2183328513524216E10 ; 58050.81999999993
164 ; 4567674.693926065 ; 4.022089907397465E8 ; 7.613937171813973E8 ; 6.258552871438621E10 ; 58406.95999999993
165 ; 4566120.954463946 ; 4.0221775045227647E8 ; 7.659613918753234E8 ; 6.298773770512595E10 ; 58763.099999999926
166 ; 4564991.6165693365 ; 4.022264798251492E8 ; 7.705275128297874E8 ; 6.338995545557823E10 ; 59119.239999999925
167 ; 4561405.871405293 ; 4.0223517868469614E8 ; 7.750925044463567E8 ; 6.379218193540338E10 ; 59475.379999999925
168 ; 4563096.217058785 ; 4.02243846858014E8 ; 7.796539103177619E8 ; 6.419441711408807E10 ; 59831.519999999924
169 ; 4558886.236555877 ; 4.0225248417296195E8 ; 7.842170065348207E8 ; 6.459666096094609E10 ; 60187.65999999992
170 ; 4557565.38017851 ; 4.0226109045815945E8 ; 7.887758927713766E8 ; 6.499891344511905E10 ; 60543.79999999992
171 ; 4556392.804170029 ; 4.022696655429847E8 ; 7.933334581515551E8 ; 6.540117453557721E10 ; 60899.93999999992
172 ; 4553513.496315936 ; 4.022782092575723E8 ; 7.978898509557251E8 ; 6.580344420112019E10 ; 61256.07999999992
173 ; 4552180.632821079 ; 4.0228672143281204E8 ; 8.02443364452041E8 ; 6.620572241037777E10 ; 61612.21999999992
174 ; 4551440.678957062 ; 4.022952019003471E8 ; 8.069955450848621E8 ; 6.6608009131810585E10 ; 61968.35999999992
175 ; 4553044.257946276 ; 4.0230365049257314E8 ; 8.115469857638192E8 ; 6.701030433371093E10 ; 62324.49999999992
176 ; 4552781.826368365 ; 4.0231206704263675E8 ; 8.161000300217655E8 ; 6.741260798420351E10 ; 62680.63999999992
177 ; 4553579.972618815 ; 4.023204513844345E8 ; 8.206528118481338E8 ; 6.781492005124614E10 ; 63036.77999999992
