CSV File for the Network on Day 196
1 - Minute m 
2 - Power Consumed at minute m 
3 - Power Produced at minute m 
4 - Energy Consumed since the beginning of the day 
5 - Energy Produced since the beginning of the day 
6 - Energy Lost since the beginning of the day 
 
0 ; 4273946.768618381 ; 6.338267184626784E8 ; 0.0 ; 0.0 ; 0.0
1 ; 4308050.292413687 ; 6.347358028677942E8 ; 4273946.768618381 ; 6.338267184626784E8 ; 0.0
2 ; 4354744.858169231 ; 6.374984233892138E8 ; 8581997.061032068 ; 1.2685625213304725E9 ; 0.0
3 ; 4404490.392418364 ; 6.421146084137306E8 ; 1.29367419192013E7 ; 1.9060609447196863E9 ; 0.0
4 ; 4466454.025889381 ; 6.485843836293175E8 ; 1.734123231161966E7 ; 2.548175553133417E9 ; 0.0
5 ; 4534431.462981972 ; 6.569077718014028E8 ; 2.1807686337509044E7 ; 3.1967599367627344E9 ; 0.0
6 ; 4631845.904963746 ; 6.670847925683559E8 ; 2.6342117800491016E7 ; 3.8536677085641375E9 ; 0.0
7 ; 4764687.033114082 ; 6.791154622603121E8 ; 3.0973963705454763E7 ; 4.520752501132493E9 ; 0.0
8 ; 4956225.080739675 ; 6.929997937451422E8 ; 3.573865073856884E7 ; 5.199867963392805E9 ; 0.0
9 ; 5241722.008183565 ; 7.087377963049133E8 ; 4.069487581930852E7 ; 5.892867757137947E9 ; 0.0
10 ; 5673099.130212346 ; 7.263294755455787E8 ; 4.593659782749209E7 ; 6.601605553442861E9 ; 0.0
11 ; 6370663.384314649 ; 7.457748333419505E8 ; 5.160969695770443E7 ; 7.32793502898844E9 ; 0.0
12 ; 7480530.973502051 ; 7.670738678192166E8 ; 5.798036034201908E7 ; 8.07370986233039E9 ; 0.0
13 ; 8539588.603802055 ; 7.90226573371423E8 ; 6.5460891315521136E7 ; 8.840783730149607E9 ; 0.0
14 ; 8678861.339633536 ; 8.152329407165043E8 ; 7.400047991932319E7 ; 9.63101030352103E9 ; 0.0
15 ; 8733005.711241178 ; 8.42092956986588E8 ; 8.267934125895673E7 ; 1.0446243244237535E10 ; 0.0
16 ; 8781177.992511146 ; 8.708066058515397E8 ; 9.141234697019792E7 ; 1.1288336201224123E10 ; 0.0
17 ; 8841730.276832322 ; 9.013738676729898E8 ; 1.0019352496270907E8 ; 1.2159142807075663E10 ; 0.0
18 ; 8895515.607767113 ; 9.337947196855102E8 ; 1.090352552395414E8 ; 1.3060516674748653E10 ; 0.0
19 ; 8946096.752194185 ; 9.680691362011274E8 ; 1.1793077084730852E8 ; 1.3994311394434164E10 ; 0.0
20 ; 9007023.634853592 ; 1.0041970888330486E9 ; 1.268768675995027E8 ; 1.4962380530635292E10 ; 0.0
21 ; 9059194.882211667 ; 1.0421785467342762E9 ; 1.3588389123435628E8 ; 1.596657761946834E10 ; 0.0
22 ; 9109452.373389574 ; 1.0820134768467574E9 ; 1.4494308611656794E8 ; 1.7008756166202616E10 ; 0.0
23 ; 9162724.276431078 ; 1.1237018441567936E9 ; 1.540525384899575E8 ; 1.8090769643049374E10 ; 0.0
24 ; 9219399.495238433 ; 1.167243611952634E9 ; 1.632152627663886E8 ; 1.921447148720617E10 ; 0.0
25 ; 9279528.54906905 ; 1.2047669874695845E9 ; 1.7243466226162702E8 ; 2.0381715099158802E10 ; 0.0
26 ; 9336252.574693654 ; 1.2047932183623948E9 ; 1.8171419081069607E8 ; 2.1586482086628387E10 ; 0.0
27 ; 9391018.134129174 ; 1.2048208800977175E9 ; 1.9105044338538972E8 ; 2.2791275304990784E10 ; 0.0
28 ; 9441983.730921999 ; 1.2048499316672847E9 ; 2.0044146151951888E8 ; 2.39960961850885E10 ; 0.0
29 ; 9503482.37935121 ; 1.204880331567371E9 ; 2.098834452504409E8 ; 2.5200946116755787E10 ; 0.0
30 ; 9554165.079109116 ; 1.204912038004636E9 ; 2.193869276297921E8 ; 2.640582644832316E10 ; 0.0
31 ; 9605407.043261286 ; 1.2049450090866776E9 ; 2.289410927089012E8 ; 2.7610738486327793E10 ; 0.0
32 ; 9659350.034752525 ; 1.2049792029965432E9 ; 2.385464997521625E8 ; 2.881568349541447E10 ; 0.0
33 ; 9708628.301142272 ; 1.205014578150846E9 ; 2.48205849786915E8 ; 3.0020662698411015E10 ; 0.0
34 ; 9752907.14266854 ; 1.2050510933414352E9 ; 2.5791447808805728E8 ; 3.122567727656186E10 ; 0.0
35 ; 9806521.412858319 ; 1.2050887078608704E9 ; 2.6766738523072582E8 ; 3.2430728369903294E10 ; 0.0
36 ; 9851155.86298585 ; 1.2051273816121643E9 ; 2.7747390664358413E8 ; 3.3635817077764164E10 ; 0.0
37 ; 9892023.497921104 ; 1.2051670752034616E9 ; 2.8732506250657E8 ; 3.484094445937633E10 ; 0.0
38 ; 9944477.22702713 ; 1.2052077500284495E9 ; 2.972170860044911E8 ; 3.604611153457979E10 ; 0.0
39 ; 9985434.575225685 ; 1.205249368333411E9 ; 3.071615632315182E8 ; 3.725131928460824E10 ; 0.0
40 ; 1.0023047396460172E7 ; 1.2052918932718897E9 ; 3.171469978067439E8 ; 3.845656865294165E10 ; 0.0
41 ; 1.0060104884958984E7 ; 1.2053352889479842E9 ; 3.271700452032041E8 ; 3.966186054621354E10 ; 0.0
42 ; 1.0094910561083496E7 ; 1.2053795204492888E9 ; 3.372301500881631E8 ; 4.086719583516152E10 ; 0.0
43 ; 1.013685526546337E7 ; 1.2054245538705003E9 ; 3.473250606492466E8 ; 4.207257535561081E10 ; 0.0
44 ; 1.0163660284644004E7 ; 1.2054703563286734E9 ; 3.574619159147099E8 ; 4.327799990948131E10 ; 0.0
45 ; 1.0197322298299436E7 ; 1.2055168959710758E9 ; 3.6762557619935393E8 ; 4.448347026580998E10 ; 0.0
46 ; 1.0230203055150012E7 ; 1.20556414197654E9 ; 3.7782289849765337E8 ; 4.568898716178106E10 ; 0.0
47 ; 1.0263687359543318E7 ; 1.2056120645511544E9 ; 3.880531015528034E8 ; 4.68945513037576E10 ; 0.0
48 ; 1.0289985462832825E7 ; 1.2056606349190724E9 ; 3.983167889123467E8 ; 4.8100163368308754E10 ; 0.0
49 ; 1.0316700495041722E7 ; 1.2057098253091645E9 ; 4.086067743751795E8 ; 4.930582400322783E10 ; 0.0
50 ; 1.0337415895313084E7 ; 1.2057596089381647E9 ; 4.1892347487022126E8 ; 5.0511533828536995E10 ; 0.0
51 ; 1.0357077927900294E7 ; 1.2058099599909055E9 ; 4.2926089076553434E8 ; 5.171729343747516E10 ; 0.0
52 ; 1.0384641430391617E7 ; 1.2058608535981808E9 ; 4.3961796869343466E8 ; 5.2923103397466064E10 ; 0.0
53 ; 1.0398811365643006E7 ; 1.2059122658127074E9 ; 4.5000261012382627E8 ; 5.412896425106425E10 ; 0.0
54 ; 1.0416413902968222E7 ; 1.2059641735836124E9 ; 4.604014214894693E8 ; 5.533487651687695E10 ; 0.0
55 ; 1.0439615616828145E7 ; 1.206016554729819E9 ; 4.708178353924375E8 ; 5.654084069046056E10 ; 0.0
56 ; 1.0459137202023998E7 ; 1.2060693879126546E9 ; 4.8125745100926566E8 ; 5.7746857245190384E10 ; 0.0
57 ; 1.0483201254911322E7 ; 1.206122652607967E9 ; 4.9171658821128964E8 ; 5.8952926633103035E10 ; 0.0
58 ; 1.0501642638731547E7 ; 1.2061763290779922E9 ; 5.0219978946620095E8 ; 6.0159049285711E10 ; 0.0
59 ; 1.0524735268508477E7 ; 1.2062303983431852E9 ; 5.127014321049325E8 ; 6.1365225614788994E10 ; 0.0
60 ; 1.054663692584705E7 ; 1.2062848421541877E9 ; 5.23226167373441E8 ; 6.257145601313218E10 ; 0.0
61 ; 1.0563750254725123E7 ; 1.2063396429640865E9 ; 5.3377280429928803E8 ; 6.377774085528637E10 ; 0.0
62 ; 1.0580695907132909E7 ; 1.2063947839010854E9 ; 5.443365545540131E8 ; 6.498408049825046E10 ; 0.0
63 ; 1.0600954393955395E7 ; 1.2064502487416928E9 ; 5.54917250461146E8 ; 6.619047528215154E10 ; 0.0
64 ; 1.0616358795246858E7 ; 1.2065060218845065E9 ; 5.655182048551013E8 ; 6.7396925530893234E10 ; 0.0
65 ; 1.0633713177841218E7 ; 1.2065620883246665E9 ; 5.761345636503482E8 ; 6.860343155277774E10 ; 0.0
66 ; 1.0650054067588404E7 ; 1.2066184336290185E9 ; 5.867682768281894E8 ; 6.98099936411024E10 ; 0.0
67 ; 1.0664013874670396E7 ; 1.2066750439120347E9 ; 5.974183308957778E8 ; 7.101661207473141E10 ; 0.0
68 ; 1.0683250194169363E7 ; 1.2067319058125107E9 ; 6.080823447704482E8 ; 7.222328711864345E10 ; 0.0
69 ; 1.069640972654216E7 ; 1.2067890064710627E9 ; 6.187655949646176E8 ; 7.343001902445596E10 ; 0.0
70 ; 1.0724245170581086E7 ; 1.2068463335084293E9 ; 6.294620046911597E8 ; 7.463680803092703E10 ; 0.0
71 ; 1.0742268604616351E7 ; 1.2069038750045836E9 ; 6.401862498617408E8 ; 7.584365436443546E10 ; 0.0
72 ; 1.0748903776563587E7 ; 1.206961619478648E9 ; 6.509285184663572E8 ; 7.705055823944003E10 ; 0.0
73 ; 1.0760997483064093E7 ; 1.2070195558696098E9 ; 6.616774222429209E8 ; 7.825751985891869E10 ; 0.0
74 ; 1.0778446751080358E7 ; 1.2070776735178194E9 ; 6.724384197259849E8 ; 7.94645394147883E10 ; 0.0
75 ; 1.0791337924327876E7 ; 1.2071359621472595E9 ; 6.832168664770653E8 ; 8.067161708830612E10 ; 0.0
76 ; 1.0811276135932647E7 ; 1.2071944118485644E9 ; 6.940082044013932E8 ; 8.187875305045338E10 ; 0.0
77 ; 1.0823635544809982E7 ; 1.207253013062776E9 ; 7.048194805373259E8 ; 8.308594746230196E10 ; 0.0
78 ; 1.0819789687478751E7 ; 1.207311756565806E9 ; 7.156431160821358E8 ; 8.429320047536473E10 ; 0.0
79 ; 1.0826619124743719E7 ; 1.2073706334535878E9 ; 7.264629057696146E8 ; 8.550051223193054E10 ; 0.0
80 ; 1.082679000457916E7 ; 1.207429635127896E9 ; 7.372895248943583E8 ; 8.670788286538412E10 ; 0.0
81 ; 1.0829729849621218E7 ; 1.207488753282805E9 ; 7.481163148989375E8 ; 8.791531250051202E10 ; 0.0
82 ; 1.0822548619977223E7 ; 1.2075479798917646E9 ; 7.589460447485586E8 ; 8.912280125379483E10 ; 0.0
83 ; 1.0827684474482985E7 ; 1.2076073071952717E9 ; 7.697685933685359E8 ; 9.03303492336866E10 ; 0.0
84 ; 1.0826398297916742E7 ; 1.2076667276891096E9 ; 7.805962778430189E8 ; 9.153795654088187E10 ; 0.0
85 ; 1.0826156929373682E7 ; 1.2077262341131346E9 ; 7.914226761409357E8 ; 9.274562326857097E10 ; 0.0
86 ; 1.0830026569816487E7 ; 1.2077858194405851E9 ; 8.022488330703094E8 ; 9.39533495026841E10 ; 0.0
87 ; 1.082165593656576E7 ; 1.2078454768678918E9 ; 8.130788596401259E8 ; 9.516113532212468E10 ; 0.0
88 ; 1.0820675736395787E7 ; 1.2079051998049655E9 ; 8.239005155766916E8 ; 9.636898079899257E10 ; 0.0
89 ; 1.0822146089307396E7 ; 1.207964981865943E9 ; 8.347211913130875E8 ; 9.757688599879753E10 ; 0.0
90 ; 1.0819046608047035E7 ; 1.2080248168603678E9 ; 8.455433374023949E8 ; 9.878485098066347E10 ; 0.0
91 ; 1.0812255038709905E7 ; 1.2080846987847872E9 ; 8.563623840104419E8 ; 9.999287579752383E10 ; 0.0
92 ; 1.0814208277621673E7 ; 1.2081446218147466E9 ; 8.671746390491518E8 ; 1.0120096049630862E11 ; 0.0
93 ; 1.0811381823303638E7 ; 1.208204580297164E9 ; 8.779888473267734E8 ; 1.0240910511812337E11 ; 0.0
94 ; 1.0801232700028462E7 ; 1.2082645687430584E9 ; 8.88800229150077E8 ; 1.0361730969842053E11 ; 0.0
95 ; 1.0803450202576956E7 ; 1.2083245818206284E9 ; 8.996014618501054E8 ; 1.0482557426716359E11 ; 0.0
96 ; 1.0795901139043268E7 ; 1.2083846143486524E9 ; 9.104049120526824E8 ; 1.0603389884898422E11 ; 0.0
97 ; 1.0788675666052815E7 ; 1.2084446612902014E9 ; 9.212008131917256E8 ; 1.0724228346333287E11 ; 0.0
98 ; 1.0785744178428955E7 ; 1.2085047177466478E9 ; 9.319894888577784E8 ; 1.0845072812462308E11 ; 0.0
99 ; 1.07850332589037E7 ; 1.2085647789519558E9 ; 9.427752330362074E8 ; 1.0965923284236972E11 ; 0.0
100 ; 1.0769139807872143E7 ; 1.208624840267235E9 ; 9.535602662951112E8 ; 1.1086779762132167E11 ; 0.0
101 ; 1.0767989617271498E7 ; 1.2086848971755567E9 ; 9.643294061029834E8 ; 1.1207642246158891E11 ; 0.0
102 ; 1.0758804702989412E7 ; 1.2087449452770035E9 ; 9.750973957202549E8 ; 1.1328510735876447E11 ; 0.0
103 ; 1.0758407841417715E7 ; 1.208804980283956E9 ; 9.858562004232444E8 ; 1.1449385230404147E11 ; 0.0
104 ; 1.0755638117365606E7 ; 1.2088649980165927E9 ; 9.96614608264662E8 ; 1.1570265728432542E11 ; 0.0
105 ; 1.0741431787582885E7 ; 1.2089249943986027E9 ; 1.0073702463820276E9 ; 1.1691152228234201E11 ; 0.0
106 ; 1.0743904445000587E7 ; 1.208984965453092E9 ; 1.0181116781696105E9 ; 1.1812044727674062E11 ; 0.0
107 ; 1.07290277556781E7 ; 1.2090449072986822E9 ; 1.028855582614611E9 ; 1.1932943224219371E11 ; 0.0
108 ; 1.0726758489780841E7 ; 1.2091048161457834E9 ; 1.0395846103702891E9 ; 1.2053847714949239E11 ; 0.0
109 ; 1.0708802691952556E7 ; 1.2091646882930408E9 ; 1.0503113688600699E9 ; 1.2174758196563817E11 ; 0.0
110 ; 1.0705902480177706E7 ; 1.2092245201239424E9 ; 1.0610201715520225E9 ; 1.2295674665393121E11 ; 0.0
111 ; 1.0699548228123043E7 ; 1.209284308103578E9 ; 1.0717260740322002E9 ; 1.2416597117405516E11 ; 0.0
112 ; 1.0688887965540916E7 ; 1.2093440487755485E9 ; 1.0824256222603233E9 ; 1.2537525548215874E11 ; 0.0
113 ; 1.0678802968219029E7 ; 1.2094037387590098E9 ; 1.0931145102258642E9 ; 1.2658459953093428E11 ; 0.0
114 ; 1.066685966142448E7 ; 1.2094633747458544E9 ; 1.1037933131940832E9 ; 1.2779400326969328E11 ; 0.0
115 ; 1.0659880318038305E7 ; 1.2095229534980128E9 ; 1.1144601728555076E9 ; 1.2900346664443913E11 ; 0.0
116 ; 1.0651230222390737E7 ; 1.2095824718448806E9 ; 1.1251200531735458E9 ; 1.3021298959793715E11 ; 0.0
117 ; 1.0637066203235827E7 ; 1.209641926680856E9 ; 1.1357712833959365E9 ; 1.3142257206978203E11 ; 0.0
118 ; 1.0627356615535434E7 ; 1.2097013149629862E9 ; 1.1464083495991724E9 ; 1.3263221399646289E11 ; 0.0
119 ; 1.061768671801502E7 ; 1.2097606337087193E9 ; 1.1570357062147079E9 ; 1.3384191531142587E11 ; 0.0
120 ; 1.060879642204405E7 ; 1.209819879993751E9 ; 1.1676533929327228E9 ; 1.350516759451346E11 ; 0.0
121 ; 1.0594705019288696E7 ; 1.2098790509499695E9 ; 1.1782621893547668E9 ; 1.3626149582512834E11 ; 0.0
122 ; 1.05815409239733E7 ; 1.2099381437634852E9 ; 1.1888568943740556E9 ; 1.374713748760783E11 ; 0.0
123 ; 1.0569551665381446E7 ; 1.2099971556727474E9 ; 1.199438435298029E9 ; 1.386813130198418E11 ; 0.0
124 ; 1.05560014386273E7 ; 1.2100560839667435E9 ; 1.2100079869634104E9 ; 1.3989131017551456E11 ; 0.0
125 ; 1.0543989609396156E7 ; 1.2101149259832726E9 ; 1.2205639884020376E9 ; 1.411013662594813E11 ; 0.0
126 ; 1.0533099035670208E7 ; 1.2101736791072927E9 ; 1.2311079780114338E9 ; 1.4231148118546457E11 ; 0.0
127 ; 1.0518560756971212E7 ; 1.2102323407693415E9 ; 1.2416410770471041E9 ; 1.4352165486457187E11 ; 0.0
128 ; 1.0503305777762987E7 ; 1.2102909084440188E9 ; 1.2521596378040752E9 ; 1.4473188720534122E11 ; 0.0
129 ; 1.0490271504633153E7 ; 1.210349379648538E9 ; 1.2626629435818381E9 ; 1.4594217811378525E11 ; 0.0
130 ; 1.0467293583145142E7 ; 1.2104077519413338E9 ; 1.2731532150864713E9 ; 1.4715252749343378E11 ; 0.0
131 ; 1.0443928795418499E7 ; 1.2104660229207299E9 ; 1.2836205086696165E9 ; 1.4836293524537512E11 ; 0.0
132 ; 1.041570219505084E7 ; 1.2105241902236629E9 ; 1.294064437465035E9 ; 1.4957340126829584E11 ; 0.0
133 ; 1.038609751125217E7 ; 1.2105822515244572E9 ; 1.304480139660086E9 ; 1.507839254585195E11 ; 0.0
134 ; 1.036255195219528E7 ; 1.2106402045336509E9 ; 1.314866237171338E9 ; 1.5199450771004395E11 ; 0.0
135 ; 1.0330151561056206E7 ; 1.2106980469968703E9 ; 1.3252287891235332E9 ; 1.532051479145776E11 ; 0.0
136 ; 1.0301604475500964E7 ; 1.21075577669375E9 ; 1.3355589406845894E9 ; 1.5441584596157446E11 ; 0.0
137 ; 1.0276181055180745E7 ; 1.2108133914368958E9 ; 1.3458605451600904E9 ; 1.5562660173826822E11 ; 0.0
138 ; 1.02391662039556E7 ; 1.2108708890708916E9 ; 1.3561367262152712E9 ; 1.568374151297051E11 ; 0.0
139 ; 1.0215731722789772E7 ; 1.210928267471345E9 ; 1.366375892419227E9 ; 1.58048286018776E11 ; 0.0
140 ; 1.0184549371243864E7 ; 1.2109855245439699E9 ; 1.3765916241420166E9 ; 1.5925921428624734E11 ; 0.0
141 ; 1.0151031018229067E7 ; 1.2110426582237096E9 ; 1.3867761735132606E9 ; 1.6047019981079132E11 ; 0.0
142 ; 1.0121880752041128E7 ; 1.2110996664738896E9 ; 1.3969272045314896E9 ; 1.6168124246901505E11 ; 0.0
143 ; 1.0092896989432631E7 ; 1.2111565472854085E9 ; 1.4070490852835307E9 ; 1.6289234213548892E11 ; 0.0
144 ; 1.0058226277566282E7 ; 1.211213298675958E9 ; 1.4171419822729633E9 ; 1.6410349868277432E11 ; 0.0
145 ; 1.0046337846725255E7 ; 1.2112699186892748E9 ; 1.4272002085505295E9 ; 1.653147119814503E11 ; 0.0
146 ; 1.0027567559135815E7 ; 1.2113264053944209E9 ; 1.4372465463972547E9 ; 1.6652598190013956E11 ; 0.0
147 ; 1.0021464191397656E7 ; 1.2113827568850927E9 ; 1.4472741139563906E9 ; 1.6773730830553397E11 ; 0.0
148 ; 1.0000513608755616E7 ; 1.2114389712789552E9 ; 1.4572955781477883E9 ; 1.6894869106241907E11 ; 0.0
149 ; 9987844.25171792 ; 1.2114950467170062E9 ; 1.4672960917565439E9 ; 1.7016013003369803E11 ; 0.0
150 ; 9973501.370537523 ; 1.2115509813629575E9 ; 1.4772839360082617E9 ; 1.7137162508041504E11 ; 0.0
151 ; 9952142.003460499 ; 1.2116067734026492E9 ; 1.4872574373787992E9 ; 1.7258317606177798E11 ; 0.0
152 ; 9945991.195441172 ; 1.2116624210434763E9 ; 1.4972095793822596E9 ; 1.7379478283518063E11 ; 0.0
153 ; 9927551.249617238 ; 1.2117179225138469E9 ; 1.5071555705777009E9 ; 1.7500644525622412E11 ; 0.0
154 ; 9916550.338850709 ; 1.211773276062652E9 ; 1.5170831218273182E9 ; 1.7621816317873798E11 ; 0.0
155 ; 9893276.604041146 ; 1.2118284799587626E9 ; 1.526999672166169E9 ; 1.7742993645480063E11 ; 0.0
156 ; 9883623.656259084 ; 1.2118835324905403E9 ; 1.53689294877021E9 ; 1.786417649347594E11 ; 0.0
157 ; 9875529.949330594 ; 1.2119384319653697E9 ; 1.546776572426469E9 ; 1.7985364846724994E11 ; 0.0
158 ; 9852482.275808135 ; 1.211993176709206E9 ; 1.5566521023757997E9 ; 1.810655868992153E11 ; 0.0
159 ; 9834525.87366039 ; 1.2120477650661411E9 ; 1.5665045846516078E9 ; 1.822775800759245E11 ; 0.0
160 ; 9817822.247567978 ; 1.2121021953979855E9 ; 1.576339110525268E9 ; 1.8348962784099063E11 ; 0.0
161 ; 9799609.262514986 ; 1.2121564660838623E9 ; 1.586156932772836E9 ; 1.847017300363886E11 ; 0.0
162 ; 9796852.812216552 ; 1.212210575519823E9 ; 1.595956542035351E9 ; 1.8591388650247247E11 ; 0.0
163 ; 9775431.093107667 ; 1.2122645221184692E9 ; 1.6057533948475676E9 ; 1.871260970779923E11 ; 0.0
164 ; 9755290.812654361 ; 1.2123183043085961E9 ; 1.6155288259406753E9 ; 1.8833836160011078E11 ; 0.0
165 ; 9747053.702108547 ; 1.2123719205348413E9 ; 1.6252841167533295E9 ; 1.8955067990441937E11 ; 0.0
166 ; 9730198.510349605 ; 1.2124253692573526E9 ; 1.6350311704554381E9 ; 1.9076305182495422E11 ; 0.0
167 ; 9713213.575534495 ; 1.2124786489514647E9 ; 1.6447613689657876E9 ; 1.9197547719421158E11 ; 0.0
168 ; 9698088.549153555 ; 1.2125317581073875E9 ; 1.6544745825413222E9 ; 1.9318795584316306E11 ; 0.0
169 ; 9688129.755335769 ; 1.2125846952299058E9 ; 1.6641726710904758E9 ; 1.9440048760127045E11 ; 0.0
170 ; 9664601.722550295 ; 1.2126374588380923E9 ; 1.6738608008458116E9 ; 1.9561307229650037E11 ; 0.0
171 ; 9640823.009618007 ; 1.2126900474650264E9 ; 1.683525402568362E9 ; 1.9682570975533847E11 ; 0.0
172 ; 9632854.473076884 ; 1.2127424596575258E9 ; 1.69316622557798E9 ; 1.980383998028035E11 ; 0.0
173 ; 9612684.75668144 ; 1.2127946939758875E9 ; 1.7027990800510569E9 ; 1.9925114226246103E11 ; 0.0
174 ; 9604677.763482155 ; 1.212846748993638E9 ; 1.7124117648077383E9 ; 2.0046393695643692E11 ; 0.0
175 ; 9595805.954227243 ; 1.2128986232972903E9 ; 1.7220164425712204E9 ; 2.0167678370543057E11 ; 0.0
176 ; 9583311.49569471 ; 1.212950315486112E9 ; 1.7316122485254476E9 ; 2.0288968232872787E11 ; 0.0
177 ; 9579127.651283262 ; 1.2130018241719007E9 ; 1.7411955600211422E9 ; 2.04102632644214E11 ; 0.0
178 ; 9566729.823175928 ; 1.213053147978767E9 ; 1.7507746876724255E9 ; 2.053156344683859E11 ; 0.0
179 ; 9555758.422755 ; 1.2131042855429235E9 ; 1.7603414174956014E9 ; 2.0652868761636465E11 ; 0.0
180 ; 9536829.466012435 ; 1.2131552355124855E9 ; 1.7698971759183564E9 ; 2.077417919019076E11 ; 0.0
181 ; 9534332.80684807 ; 1.2132059965472739E9 ; 1.779434005384369E9 ; 2.0895494713742007E11 ; 0.0
182 ; 9516356.911342315 ; 1.2132565673186276E9 ; 1.788968338191217E9 ; 2.1016815313396735E11 ; 0.0
183 ; 9506642.161958626 ; 1.2133069465092213E9 ; 1.7984846951025593E9 ; 2.1138140970128598E11 ; 0.0
184 ; 9500103.672860527 ; 1.2133571328128908E9 ; 1.807991337264518E9 ; 2.125947166477952E11 ; 0.0
185 ; 9489145.091673627 ; 1.213407124934462E9 ; 1.8174914409373786E9 ; 2.138080737806081E11 ; 0.0
186 ; 9474706.791609513 ; 1.2134569215895896E9 ; 1.8269805860290523E9 ; 2.1502148090554254E11 ; 0.0
187 ; 9466643.345228266 ; 1.2135065215045958E9 ; 1.8364552928206618E9 ; 2.1623493782713214E11 ; 0.0
188 ; 9450022.725329503 ; 1.2135559234163206E9 ; 1.84592193616589E9 ; 2.1744844434863675E11 ; 0.0
189 ; 9439715.825975925 ; 1.2136051260719728E9 ; 1.8553719588912194E9 ; 2.1866200027205307E11 ; 0.0
190 ; 9434756.323934099 ; 1.2136541282289872E9 ; 1.8648116747171953E9 ; 2.1987560539812503E11 ; 0.0
191 ; 9424226.33932364 ; 1.213702928654889E9 ; 1.8742464310411294E9 ; 2.21089259526354E11 ; 0.0
192 ; 9407652.536909293 ; 1.2137515261271586E9 ; 1.883670657380453E9 ; 2.2230296245500888E11 ; 0.0
193 ; 9401301.047031503 ; 1.213799919433104E9 ; 1.8930783099173625E9 ; 2.2351671398113605E11 ; 0.0
194 ; 9390498.886179894 ; 1.213848107369737E9 ; 1.9024796109643939E9 ; 2.2473051390056915E11 ; 0.0
195 ; 9380382.429843523 ; 1.2138960887436533E9 ; 1.9118701098505738E9 ; 2.259443620079389E11 ; 0.0
196 ; 9362312.908778768 ; 1.2139438623709164E9 ; 1.9212504922804172E9 ; 2.2715825809668256E11 ; 0.0
197 ; 9355187.516263809 ; 1.2139914270769448E9 ; 1.9306128051891959E9 ; 2.2837220195905347E11 ; 0.0
