CSV File for the Network on Day 254
1 - Minute m 
2 - Power Consumed at minute m 
3 - Power Produced at minute m 
4 - Energy Consumed since the beginning of the day 
5 - Energy Produced since the beginning of the day 
6 - Energy Lost since the beginning of the day 
 
0 ; 1.002843951665961E7 ; 6.337948116796849E8 ; 0.0 ; 0.0 ; 0.0
1 ; 1.0066440508888809E7 ; 6.347038080472263E8 ; 1.002843951665961E7 ; 6.337948116796849E8 ; 0.0
2 ; 1.0108005419775326E7 ; 6.374663479015832E8 ; 2.009488002554842E7 ; 1.268498619726911E9 ; 0.0
3 ; 1.0142526458420519E7 ; 6.42082460218301E8 ; 3.0202885445323747E7 ; 1.9059649676284943E9 ; 0.0
4 ; 1.0190154317551555E7 ; 6.485521712293074E8 ; 4.0345411903744265E7 ; 2.548047427846795E9 ; 0.0
5 ; 1.0265204935065696E7 ; 6.568755041909394E8 ; 5.053556622129582E7 ; 3.1965995990761023E9 ; 0.0
6 ; 1.035238275555147E7 ; 6.670524791716951E8 ; 6.080077115636151E7 ; 3.8534751032670417E9 ; 0.0
7 ; 1.0471586635505546E7 ; 6.790831128640565E8 ; 7.115315391191298E7 ; 4.520527582438737E9 ; 0.0
8 ; 1.0659893476363443E7 ; 6.929674184244032E8 ; 8.162474054741852E7 ; 5.1996106953027935E9 ; 0.0
9 ; 1.0925306625319816E7 ; 7.087054053445436E8 ; 9.228463402378196E7 ; 5.892578113727197E9 ; 0.0
10 ; 1.1370764581022061E7 ; 7.262970793577666E8 ; 1.0320994064910176E8 ; 6.60128351907174E9 ; 0.0
11 ; 1.205655630012804E7 ; 7.45742442381581E8 ; 1.1458070523012382E8 ; 7.327580598429506E9 ; 0.0
12 ; 1.3158660468301069E7 ; 7.670414924984775E8 ; 1.2663726153025186E8 ; 8.073323040811088E9 ; 0.0
13 ; 1.4213120812479079E7 ; 7.901942239751675E8 ; 1.3979592199855292E8 ; 8.840364533309565E9 ; 0.0
14 ; 1.4330533936024588E7 ; 8.152006273198433E8 ; 1.54009042811032E8 ; 9.630558757284733E9 ; 0.0
15 ; 1.4388578409102779E7 ; 8.420606893761246E8 ; 1.6833957674705657E8 ; 1.0445759384604576E10 ; 0.0
16 ; 1.4432490379876293E7 ; 8.707743934515297E8 ; 1.8272815515615934E8 ; 1.1287820073980701E10 ; 0.0
17 ; 1.447974160655046E7 ; 9.013417194775604E8 ; 1.9716064553603563E8 ; 1.2158594467432232E10 ; 0.0
18 ; 1.4524369135358918E7 ; 9.337626441978796E8 ; 2.1164038714258608E8 ; 1.3059936186909792E10 ; 0.0
19 ; 1.4570191594685812E7 ; 9.680371413805596E8 ; 2.26164756277945E8 ; 1.3993698831107672E10 ; 0.0
20 ; 1.4625053085349891E7 ; 1.004165182050055E9 ; 2.4073494787263083E8 ; 1.4961735972488232E10 ; 0.0
21 ; 1.46712918687389E7 ; 1.0421467347343569E9 ; 2.5536000095798072E8 ; 1.5965901154538286E10 ; 0.0
22 ; 1.4715180047869619E7 ; 1.0819817657227583E9 ; 2.7003129282671964E8 ; 1.7008047889272644E10 ; 0.0
23 ; 1.4760180290856287E7 ; 1.1236702393297577E9 ; 2.8474647287458926E8 ; 1.8090029654995403E10 ; 0.0
24 ; 1.4814570379219607E7 ; 1.167212118160843E9 ; 2.9950665316544557E8 ; 1.921369989432516E10 ; 0.0
25 ; 1.4859346472771458E7 ; 1.2047356087653403E9 ; 3.1432122354466516E8 ; 2.0380912012486004E10 ; 0.0
26 ; 1.4908455172669606E7 ; 1.2047619581159647E9 ; 3.291805700174366E8 ; 2.1585647621251343E10 ; 0.0
27 ; 1.4963440649697453E7 ; 1.2047897410077686E9 ; 3.440890251901062E8 ; 2.2790409579367306E10 ; 0.0
28 ; 1.500824625359514E7 ; 1.2048189157770805E9 ; 3.590524658398037E8 ; 2.3995199320375076E10 ; 0.0
29 ; 1.5045114465283781E7 ; 1.2048494402859507E9 ; 3.740607120933988E8 ; 2.5200018236152157E10 ; 0.0
30 ; 1.5091580757911205E7 ; 1.204881272132204E9 ; 3.8910582655868256E8 ; 2.6404867676438107E10 ; 0.0
31 ; 1.5138143567348626E7 ; 1.2049143688434246E9 ; 4.0419740731659377E8 ; 2.7609748948570312E10 ; 0.0
32 ; 1.5185651087494709E7 ; 1.2049486880541592E9 ; 4.1933555088394237E8 ; 2.881466331741374E10 ; 0.0
33 ; 1.5224713022481542E7 ; 1.204984187666027E9 ; 4.345212019714371E8 ; 3.0019612005467896E10 ; 0.0
34 ; 1.5274243024379268E7 ; 1.2050208259907374E9 ; 4.4974591499391866E8 ; 3.1224596193133923E10 ; 0.0
35 ; 1.5304021936749531E7 ; 1.2050585618763266E9 ; 4.650201580182979E8 ; 3.242961701912466E10 ; 0.0
36 ; 1.5350216585046604E7 ; 1.2050973548171465E9 ; 4.803241799550474E8 ; 3.3634675581000988E10 ; 0.0
37 ; 1.538391447022863E7 ; 1.2051371650483365E9 ; 4.95674396540094E8 ; 3.483977293581814E10 ; 0.0
38 ; 1.542286841294356E7 ; 1.205177953625642E9 ; 5.1105831101032263E8 ; 3.604491010086648E10 ; 0.0
39 ; 1.5461537843264043E7 ; 1.2052196824915566E9 ; 5.264811794232662E8 ; 3.725008805449212E10 ; 0.0
40 ; 1.5495868036208538E7 ; 1.205262314528811E9 ; 5.419427172665303E8 ; 3.845530773698367E10 ; 0.0
41 ; 1.5525865683157535E7 ; 1.2053058136022906E9 ; 5.574385853027388E8 ; 3.966057005151248E10 ; 0.0
42 ; 1.5551925838342767E7 ; 1.2053501445904431E9 ; 5.729644509858963E8 ; 4.086587586511477E10 ; 0.0
43 ; 1.5581254886118308E7 ; 1.2053952734072392E9 ; 5.885163768242391E8 ; 4.2071226009705215E10 ; 0.0
44 ; 1.5605886042392567E7 ; 1.2054411670157185E9 ; 6.040976317103574E8 ; 4.327662128311246E10 ; 0.0
45 ; 1.5631673370787175E7 ; 1.2054877934340916E9 ; 6.1970351775275E8 ; 4.4482062450128174E10 ; 0.0
46 ; 1.565586514854146E7 ; 1.2055351217353354E9 ; 6.353351911235372E8 ; 4.568755024356226E10 ; 0.0
47 ; 1.5671415979683477E7 ; 1.2055831220411425E9 ; 6.509910562720786E8 ; 4.68930853652976E10 ; 0.0
48 ; 1.5699319092466164E7 ; 1.205631765511025E9 ; 6.666624722517622E8 ; 4.8098668487338745E10 ; 0.0
49 ; 1.5709836192193374E7 ; 1.205681024327311E9 ; 6.823617913442283E8 ; 4.930430025284977E10 ; 0.0
50 ; 1.5723175714250151E7 ; 1.2057308716766996E9 ; 6.980716275364217E8 ; 5.050998127717708E10 ; 0.0
51 ; 1.5739694035748694E7 ; 1.2057812817289765E9 ; 7.137948032506719E8 ; 5.1715712148853775E10 ; 0.0
52 ; 1.5753370469102811E7 ; 1.2058322296134346E9 ; 7.295344972864206E8 ; 5.292149343058275E10 ; 0.0
53 ; 1.5770176947641104E7 ; 1.2058836913934772E9 ; 7.452878677555234E8 ; 5.412732566019618E10 ; 0.0
54 ; 1.5780158823838376E7 ; 1.2059356440398295E9 ; 7.610580447031646E8 ; 5.533320935158966E10 ; 0.0
55 ; 1.5791655883446686E7 ; 1.2059880654027333E9 ; 7.768382035270029E8 ; 5.653914499562949E10 ; 0.0
56 ; 1.5805242793681458E7 ; 1.2060409341834495E9 ; 7.926298594104496E8 ; 5.774513306103223E10 ; 0.0
57 ; 1.5815640583099924E7 ; 1.2060942299053488E9 ; 8.084351022041311E8 ; 5.8951173995215675E10 ; 0.0
58 ; 1.5830222459354728E7 ; 1.2061479328848355E9 ; 8.242507427872311E8 ; 6.0157268225121025E10 ; 0.0
59 ; 1.5839163679323424E7 ; 1.2062020242023087E9 ; 8.400809652465858E8 ; 6.136341615800586E10 ; 0.0
60 ; 1.585537829263854E7 ; 1.2062564856733356E9 ; 8.559201289259093E8 ; 6.256961818220817E10 ; 0.0
61 ; 1.5860405716116078E7 ; 1.2063112998201845E9 ; 8.717755072185478E8 ; 6.37758746678815E10 ; 0.0
62 ; 1.587834470344809E7 ; 1.2063664498438337E9 ; 8.876359129346639E8 ; 6.498218596770168E10 ; 0.0
63 ; 1.5875800768539075E7 ; 1.2064219195965612E9 ; 9.03514257638112E8 ; 6.618855241754552E10 ; 0.0
64 ; 1.5896554511047225E7 ; 1.2064776935551863E9 ; 9.19390058406651E8 ; 6.7394974337142075E10 ; 0.0
65 ; 1.590518423732005E7 ; 1.2065337567950315E9 ; 9.352866129176983E8 ; 6.860145203069726E10 ; 0.0
66 ; 1.5911022774081325E7 ; 1.2065900949646492E9 ; 9.511917971550183E8 ; 6.98079857874923E10 ; 0.0
67 ; 1.5921763713388871E7 ; 1.2066466942613423E9 ; 9.671028199290997E8 ; 7.101457588245694E10 ; 0.0
68 ; 1.5928322505233154E7 ; 1.2067035414075136E9 ; 9.830245836424886E8 ; 7.222122257671828E10 ; 0.0
69 ; 1.5940561343679963E7 ; 1.2067606236278448E9 ; 9.989529061477218E8 ; 7.34279261181258E10 ; 0.0
70 ; 1.5952130302464664E7 ; 1.2068179286273203E9 ; 1.0148934674914017E9 ; 7.463468674175363E10 ; 0.0
71 ; 1.5960013549201088E7 ; 1.2068754445700912E9 ; 1.0308455977938664E9 ; 7.584150467038095E10 ; 0.0
72 ; 1.5968311307683604E7 ; 1.206933160059174E9 ; 1.0468056113430675E9 ; 7.704838011495105E10 ; 0.0
73 ; 1.5971241474906512E7 ; 1.2069910641169724E9 ; 1.0627739226507511E9 ; 7.825531327501022E10 ; 0.0
74 ; 1.5979125279777419E7 ; 1.207049146166611E9 ; 1.0787451641256576E9 ; 7.94623043391272E10 ; 0.0
75 ; 1.5982735456217535E7 ; 1.2071073960140564E9 ; 1.094724289405435E9 ; 8.066935348529381E10 ; 0.0
76 ; 1.5998386412987497E7 ; 1.207165803831015E9 ; 1.1107070248616526E9 ; 8.187646088130786E10 ; 0.0
77 ; 1.5997698818159793E7 ; 1.2072243601385784E9 ; 1.12670541127464E9 ; 8.308362668513887E10 ; 0.0
78 ; 1.5988130672307365E7 ; 1.207283055791595E9 ; 1.1427031100928E9 ; 8.429085104527745E10 ; 0.0
79 ; 1.598256447793495E7 ; 1.207341881963746E9 ; 1.1586912407651072E9 ; 8.549813410106905E10 ; 0.0
80 ; 1.596829232323552E7 ; 1.2074008301333008E9 ; 1.174673805243042E9 ; 8.670547598303279E10 ; 0.0
81 ; 1.5962237273471586E7 ; 1.2074598920695214E9 ; 1.1906420975662775E9 ; 8.791287681316609E10 ; 0.0
82 ; 1.5960338795494273E7 ; 1.2075190598196993E9 ; 1.206604334839749E9 ; 8.912033670523561E10 ; 0.0
83 ; 1.5945739073157191E7 ; 1.2075783256967916E9 ; 1.2225646736352434E9 ; 9.032785576505531E10 ; 0.0
84 ; 1.5932102555138327E7 ; 1.207637682267638E9 ; 1.2385104127084007E9 ; 9.15354340907521E10 ; 0.0
85 ; 1.592837345787368E7 ; 1.2076971223417287E9 ; 1.254442515263539E9 ; 9.274307177301974E10 ; 0.0
86 ; 1.5920920679015547E7 ; 1.207756638960504E9 ; 1.2703708887214127E9 ; 9.395076889536148E10 ; 0.0
87 ; 1.590717802037458E7 ; 1.2078162253871589E9 ; 1.2862918094004283E9 ; 9.515852553432199E10 ; 0.0
88 ; 1.5898862941509409E7 ; 1.2078758750969315E9 ; 1.3021989874208028E9 ; 9.636634175970915E10 ; 0.0
89 ; 1.5894613592144031E7 ; 1.2079355817678516E9 ; 1.3180978503623123E9 ; 9.757421763480609E10 ; 0.0
90 ; 1.5874686870727722E7 ; 1.2079953392719314E9 ; 1.3339924639544563E9 ; 9.878215321657394E10 ; 0.0
91 ; 1.586587047681522E7 ; 1.2080551416667743E9 ; 1.349867150825184E9 ; 9.999014855584587E10 ; 0.0
92 ; 1.5858838549130827E7 ; 1.2081149831875825E9 ; 1.3657330213019993E9 ; 1.0119820369751265E11 ; 0.0
93 ; 1.584355792374404E7 ; 1.2081748582395475E9 ; 1.3815918598511302E9 ; 1.0240631868070023E11 ; 0.0
94 ; 1.5828849391100496E7 ; 1.2082347613906E9 ; 1.3974354177748742E9 ; 1.0361449353893977E11 ; 0.0
95 ; 1.5812023844409455E7 ; 1.2082946873645074E9 ; 1.4132642671659746E9 ; 1.0482272830033037E11 ; 0.0
96 ; 1.579762008764536E7 ; 1.2083546310342968E9 ; 1.429076291010384E9 ; 1.0603102298769487E11 ; 0.0
97 ; 1.5791842729179122E7 ; 1.2084145874159913E9 ; 1.4448739110980294E9 ; 1.0723937761872917E11 ; 0.0
98 ; 1.5777460894242497E7 ; 1.2084745516626425E9 ; 1.4606657538272085E9 ; 1.0844779220614516E11 ; 0.0
99 ; 1.5768459509835906E7 ; 1.2085345190586467E9 ; 1.476443214721451E9 ; 1.096562667578078E11 ; 0.0
100 ; 1.5751887303736921E7 ; 1.2085944850143254E9 ; 1.492211674231287E9 ; 1.1086480127686644E11 ; 0.0
101 ; 1.5738678876780875E7 ; 1.2086544450607657E9 ; 1.507963561535024E9 ; 1.1207339576188077E11 ; 0.0
102 ; 1.5721745477899857E7 ; 1.2087143948448982E9 ; 1.523702240411805E9 ; 1.1328205020694153E11 ; 0.0
103 ; 1.5707813501054564E7 ; 1.208774330124809E9 ; 1.5394239858897047E9 ; 1.1449076460178642E11 ; 0.0
104 ; 1.5685666527375706E7 ; 1.2088342467652686E9 ; 1.5551317993907592E9 ; 1.1569953893191122E11 ; 0.0
105 ; 1.5673183441301618E7 ; 1.2088941407334683E9 ; 1.570817465918135E9 ; 1.169083731786765E11 ; 0.0
106 ; 1.5655557483772252E7 ; 1.2089540080949569E9 ; 1.5864906493594365E9 ; 1.1811726731940997E11 ; 0.0
107 ; 1.5642202493248448E7 ; 1.2090138450097623E9 ; 1.6021462068432088E9 ; 1.1932622132750493E11 ; 0.0
108 ; 1.5630087568567635E7 ; 1.2090736477286937E9 ; 1.6177884093364573E9 ; 1.205352351725147E11 ; 0.0
109 ; 1.5610194640879624E7 ; 1.2091334125898125E9 ; 1.633418496905025E9 ; 1.217443088202434E11 ; 0.0
110 ; 1.5592203855555046E7 ; 1.2091931360150647E9 ; 1.6490286915459046E9 ; 1.229534422328332E11 ; 0.0
111 ; 1.5574787417943384E7 ; 1.2092528145070686E9 ; 1.6646208954014597E9 ; 1.2416263536884827E11 ; 0.0
112 ; 1.555955367760795E7 ; 1.2093124446460447E9 ; 1.6801956828194032E9 ; 1.2537188818335533E11 ; 0.0
113 ; 1.5537202718925826E7 ; 1.2093720230868876E9 ; 1.6957552364970112E9 ; 1.2658120062800137E11 ; 0.0
114 ; 1.551844993022647E7 ; 1.2094315465563684E9 ; 1.711292439215937E9 ; 1.2779057265108826E11 ; 0.0
115 ; 1.5499631301774383E7 ; 1.209491011850462E9 ; 1.7268108891461635E9 ; 1.2900000419764462E11 ; 0.0
116 ; 1.5480823863918442E7 ; 1.2095504158317962E9 ; 1.742310520447938E9 ; 1.3020949520949509E11 ; 0.0
117 ; 1.545961429413883E7 ; 1.2096097554272108E9 ; 1.7577913443118565E9 ; 1.3141904562532689E11 ; 0.0
118 ; 1.5441265891810112E7 ; 1.2096690276254275E9 ; 1.7732509586059954E9 ; 1.326286553807541E11 ; 0.0
119 ; 1.5419147900798386E7 ; 1.2097282294748218E9 ; 1.7886922244978056E9 ; 1.3383832440837953E11 ; 0.0
120 ; 1.5407198507812746E7 ; 1.209787358081292E9 ; 1.804111372398604E9 ; 1.3504805263785435E11 ; 0.0
121 ; 1.5377918178644277E7 ; 1.2098464106062217E9 ; 1.8195185709064167E9 ; 1.3625783999593565E11 ; 0.0
122 ; 1.5355751545870716E7 ; 1.2099053842645326E9 ; 1.8348964890850608E9 ; 1.3746768640654187E11 ; 0.0
123 ; 1.5335391199972074E7 ; 1.2099642763228192E9 ; 1.8502522406309316E9 ; 1.386775917908064E11 ; 0.0
124 ; 1.5317335909706123E7 ; 1.2100230840975654E9 ; 1.8655876318309038E9 ; 1.398875560671292E11 ; 0.0
125 ; 1.5292801693251602E7 ; 1.2100818049534385E9 ; 1.88090496774061E9 ; 1.4109757915122678E11 ; 0.0
126 ; 1.527270655559179E7 ; 1.2101404363016527E9 ; 1.8961977694338615E9 ; 1.423076609561802E11 ; 0.0
127 ; 1.5251102912027959E7 ; 1.210198975598408E9 ; 1.9114704759894533E9 ; 1.4351780139248187E11 ; 0.0
128 ; 1.5227398183169827E7 ; 1.2102574203433886E9 ; 1.9267215789014814E9 ; 1.447280003680803E11 ; 0.0
129 ; 1.5199073108566467E7 ; 1.210315768078332E9 ; 1.9419489770846512E9 ; 1.4593825778842368E11 ; 0.0
130 ; 1.5179116405018236E7 ; 1.2103740163856502E9 ; 1.9571480501932178E9 ; 1.47148573556502E11 ; 0.0
131 ; 1.5140011449378062E7 ; 1.2104321628871157E9 ; 1.972327166598236E9 ; 1.4835894757288766E11 ; 0.0
132 ; 1.5105338591572776E7 ; 1.2104902052425978E9 ; 1.987467178047614E9 ; 1.4956937973577478E11 ; 0.0
133 ; 1.506574399453806E7 ; 1.2105481411488535E9 ; 2.0025725166391869E9 ; 1.5077986994101736E11 ; 0.0
134 ; 1.502298953195247E7 ; 1.2106059683383672E9 ; 2.017638260633725E9 ; 1.5199041808216623E11 ; 0.0
135 ; 1.4995508604391638E7 ; 1.2106636845782378E9 ; 2.0326612501656773E9 ; 1.532010240505046E11 ; 0.0
136 ; 1.4954253884955112E7 ; 1.2107212876691134E9 ; 2.047656758770069E9 ; 1.5441168773508286E11 ; 0.0
137 ; 1.490674355704286E7 ; 1.2107787754441662E9 ; 2.062611012655024E9 ; 1.5562240902275198E11 ; 0.0
138 ; 1.4876322324194545E7 ; 1.2108361457681122E9 ; 2.077517756212067E9 ; 1.5683318779819614E11 ; 0.0
139 ; 1.4832563497160878E7 ; 1.2108933965362678E9 ; 2.0923940785362613E9 ; 1.5804402394396423E11 ; 0.0
140 ; 1.4795043726758413E7 ; 1.210950525673647E9 ; 2.1072266420334222E9 ; 1.592549173405005E11 ; 0.0
141 ; 1.4760518891017435E7 ; 1.211007531134091E9 ; 2.1220216857601807E9 ; 1.6046586786617413E11 ; 0.0
142 ; 1.4705931975678038E7 ; 1.211064410899438E9 ; 2.1367822046511981E9 ; 1.6167687539730823E11 ; 0.0
143 ; 1.4671963235964905E7 ; 1.2111211629787185E9 ; 2.1514881366268764E9 ; 1.6288793980820767E11 ; 0.0
144 ; 1.4630476887235489E7 ; 1.211177785407391E9 ; 2.166160099862841E9 ; 1.640990609711864E11 ; 0.0
145 ; 1.4607519775910456E7 ; 1.2112342762466E9 ; 2.180790576750077E9 ; 1.6531023875659378E11 ; 0.0
146 ; 1.459150956058586E7 ; 1.2112906335824685E9 ; 2.195398096525987E9 ; 1.665214730328404E11 ; 0.0
147 ; 1.455760132255572E7 ; 1.2113468555254145E9 ; 2.209989606086573E9 ; 1.6773276366642285E11 ; 0.0
148 ; 1.453373825493119E7 ; 1.2114029402094975E9 ; 2.2245472074091287E9 ; 1.6894411052194827E11 ; 0.0
149 ; 1.4510172173212763E7 ; 1.211458885791786E9 ; 2.2390809456640596E9 ; 1.7015551346215778E11 ; 0.0
150 ; 1.4488147434887083E7 ; 1.2115146904517546E9 ; 2.253591117837272E9 ; 1.7136697234794955E11 ; 0.0
151 ; 1.4467224858372023E7 ; 1.211570352390699E9 ; 2.268079265272159E9 ; 1.725784870384013E11 ; 0.0
152 ; 1.4441718083870167E7 ; 1.2116258698311772E9 ; 2.2825464901305313E9 ; 1.73790057390792E11 ; 0.0
153 ; 1.4412626021658653E7 ; 1.21168124101647E9 ; 2.2969882082144012E9 ; 1.7500168326062317E11 ; 0.0
154 ; 1.4391693916198099E7 ; 1.2117364642100632E9 ; 2.3114008342360597E9 ; 1.7621336450163965E11 ; 0.0
155 ; 1.4371636190581663E7 ; 1.2117915376951478E9 ; 2.325792528152258E9 ; 1.774251009658497E11 ; 0.0
156 ; 1.4340080524313852E7 ; 1.2118464597741408E9 ; 2.3401641643428397E9 ; 1.7863689250354486E11 ; 0.0
157 ; 1.4318262578529343E7 ; 1.2119012287682233E9 ; 2.3545042448671536E9 ; 1.79848738963319E11 ; 0.0
158 ; 1.4288168070868023E7 ; 1.211955843016894E9 ; 2.368822507445683E9 ; 1.8106064019208722E11 ; 0.0
159 ; 1.4266264941768397E7 ; 1.2120103008775434E9 ; 2.383110675516551E9 ; 1.8227259603510413E11 ; 0.0
160 ; 1.4238369030247472E7 ; 1.2120646007250395E9 ; 2.397376940458319E9 ; 1.8348460633598166E11 ; 0.0
161 ; 1.4215218327118227E7 ; 1.212118740951332E9 ; 2.411615309488567E9 ; 1.846966709367067E11 ; 0.0
162 ; 1.4187788479526855E7 ; 1.2121727199650686E9 ; 2.4258305278156853E9 ; 1.8590878967765802E11 ; 0.0
163 ; 1.4164669733770471E7 ; 1.2122265361912274E9 ; 2.4400183162952123E9 ; 1.8712096239762308E11 ; 0.0
164 ; 1.4140950363680225E7 ; 1.2122801880707626E9 ; 2.4541829860289826E9 ; 1.883331889338143E11 ; 0.0
165 ; 1.4111256460551908E7 ; 1.21233367406026E9 ; 2.468323936392663E9 ; 1.8954546912188507E11 ; 0.0
166 ; 1.4088427626289476E7 ; 1.2123869926316109E9 ; 2.4824351928532147E9 ; 1.9075780279594534E11 ; 0.0
167 ; 1.4062799374333726E7 ; 1.2124401422716906E9 ; 2.496523620479504E9 ; 1.9197018978857697E11 ; 0.0
168 ; 1.4040851004247006E7 ; 1.2124931214820554E9 ; 2.510586419853838E9 ; 1.9318262993084866E11 ; 0.0
169 ; 1.401184227105971E7 ; 1.2125459287786458E9 ; 2.524627270858085E9 ; 1.9439512305233072E11 ; 0.0
170 ; 1.398504129012981E7 ; 1.2125985626915026E9 ; 2.5386391131291447E9 ; 1.9560766898110938E11 ; 0.0
171 ; 1.3960116638461854E7 ; 1.2126510217644908E9 ; 2.5526241544192743E9 ; 1.9682026754380087E11 ; 0.0
172 ; 1.3933933941472534E7 ; 1.212703304555038E9 ; 2.5665842710577364E9 ; 1.9803291856556537E11 ; 0.0
173 ; 1.3913182186633699E7 ; 1.212755409633876E9 ; 2.580518204999209E9 ; 1.992456218701204E11 ; 0.0
174 ; 1.389218032046953E7 ; 1.2128073355847974E9 ; 2.5944313871858425E9 ; 2.0045837727975427E11 ; 0.0
175 ; 1.386816114910236E7 ; 1.2128590810044155E9 ; 2.608323567506312E9 ; 2.0167118461533908E11 ; 0.0
176 ; 1.3851293382235914E7 ; 1.212910644501937E9 ; 2.622191728655414E9 ; 2.028840436963435E11 ; 0.0
177 ; 1.3836836490158975E7 ; 1.2129620246989403E9 ; 2.63604302203765E9 ; 2.0409695434084543E11 ; 0.0
178 ; 1.3814313309179204E7 ; 1.2130132202291625E9 ; 2.649879858527809E9 ; 2.0530991636554437E11 ; 0.0
179 ; 1.3797102156721111E7 ; 1.2130642297382927E9 ; 2.6636941718369884E9 ; 2.0652292958577353E11 ; 0.0
180 ; 1.377057066234645E7 ; 1.2131150518837748E9 ; 2.6774912739937096E9 ; 2.077359938155118E11 ; 0.0
181 ; 1.3755018629717886E7 ; 1.2131656853346143E9 ; 2.691261844656056E9 ; 2.089491088673956E11 ; 0.0
182 ; 1.373688888751036E7 ; 1.2132161287711935E9 ; 2.7050168632857738E9 ; 2.1016227455273022E11 ; 0.0
183 ; 1.3717431156671252E7 ; 1.2132663808850937E9 ; 2.718753752173284E9 ; 2.113754906815014E11 ; 0.0
184 ; 1.3699669316986172E7 ; 1.2133164403789215E9 ; 2.732471183329955E9 ; 2.125887570623865E11 ; 0.0
185 ; 1.3681574087931808E7 ; 1.2133663059661436E9 ; 2.746170852646941E9 ; 2.1380207350276544E11 ; 0.0
186 ; 1.365619261853259E7 ; 1.2134159763709245E9 ; 2.759852426734873E9 ; 2.150154398087316E11 ; 0.0
187 ; 1.3637592714123541E7 ; 1.2134654503279717E9 ; 2.7735086193534055E9 ; 2.162288557851025E11 ; 0.0
188 ; 1.3622341877963956E7 ; 1.2135147265823863E9 ; 2.787146212067529E9 ; 2.1744232123543048E11 ; 0.0
189 ; 1.3596717500585387E7 ; 1.2135638038895175E9 ; 2.800768553945493E9 ; 2.1865583596201288E11 ; 0.0
190 ; 1.358773803722179E7 ; 1.2136126810148232E9 ; 2.814365271446079E9 ; 2.198693997659024E11 ; 0.0
191 ; 1.3556374554891089E7 ; 1.2136613567337341E9 ; 2.8279530094833007E9 ; 2.2108301244691724E11 ; 0.0
192 ; 1.3538324021486208E7 ; 1.2137098298315241E9 ; 2.841509384038192E9 ; 2.2229667380365097E11 ; 0.0
193 ; 1.3523687642254112E7 ; 1.2137580991031835E9 ; 2.855047708059678E9 ; 2.2351038363348248E11 ; 0.0
194 ; 1.3503141638976954E7 ; 1.213806163353297E9 ; 2.868571395701932E9 ; 2.2472414173258566E11 ; 0.0
195 ; 1.3482927213537287E7 ; 1.2138540213959274E9 ; 2.882074537340909E9 ; 2.2593794789593896E11 ; 0.0
