CSV File for the Network on Day 208
1 - Minute m 
2 - Power Consumed at minute m 
3 - Power Produced at minute m 
4 - Energy Consumed since the beginning of the day 
5 - Energy Produced since the beginning of the day 
6 - Energy Lost since the beginning of the day 
 
0 ; 2625752.081943919 ; 6.330903475213792E8 ; 0.0 ; 0.0 ; 0.0
1 ; 2666246.3568411684 ; 6.33996324194785E8 ; 2625752.081943919 ; 6.330903475213792E8 ; 0.0
2 ; 2716350.7098093648 ; 6.367560866676375E8 ; 5291998.438785087 ; 1.267086671716164E9 ; 0.0
3 ; 2769764.554256453 ; 6.413696868642734E8 ; 8008349.148594452 ; 1.9038427583838015E9 ; 0.0
4 ; 2827165.5735310446 ; 6.478371725053688E8 ; 1.0778113702850904E7 ; 2.545212445248075E9 ; 0.0
5 ; 2902667.8984201336 ; 6.561585864738007E8 ; 1.3605279276381949E7 ; 3.1930496177534437E9 ; 0.0
6 ; 3001165.1260011997 ; 6.663339662149488E8 ; 1.6507947174802084E7 ; 3.8492082042272444E9 ; 0.0
7 ; 3133964.1972006573 ; 6.783633431896458E8 ; 1.950911230080328E7 ; 4.515542170442193E9 ; 0.0
8 ; 3329700.854826788 ; 6.922467423975146E8 ; 2.2643076498003937E7 ; 5.193905513631839E9 ; 0.0
9 ; 3613553.895268622 ; 7.079841819870081E8 ; 2.5972777352830727E7 ; 5.886152256029353E9 ; 0.0
10 ; 4053894.5973940827 ; 7.255756729660673E8 ; 2.958633124809935E7 ; 6.594136438016361E9 ; 0.0
11 ; 4744158.970001731 ; 7.450212190240453E8 ; 3.3640225845493436E7 ; 7.319712110982429E9 ; 0.0
12 ; 5865520.742499243 ; 7.663208164715887E8 ; 3.838438481549516E7 ; 8.064733330006474E9 ; 0.0
13 ; 6928558.911852747 ; 7.894744543007569E8 ; 4.42499055579944E7 ; 8.831054146478062E9 ; 0.0
14 ; 7064243.566160488 ; 8.14482114363097E8 ; 5.117846446984715E7 ; 9.620528600778818E9 ; 0.0
15 ; 7113991.444942142 ; 8.413437716589859E8 ; 5.8242708036007635E7 ; 1.0435010715141914E10 ; 0.0
16 ; 7173522.754966201 ; 8.700593947275912E8 ; 6.5356699480949774E7 ; 1.12763544868009E10 ; 0.0
17 ; 7227089.087386068 ; 9.006289461235327E8 ; 7.253022223591597E7 ; 1.214641388152849E10 ; 0.0
18 ; 7283445.7719138805 ; 9.330523829639338E8 ; 7.975731132330205E7 ; 1.3047042827652023E10 ; 0.0
19 ; 7342299.51192271 ; 9.673296575281184E8 ; 8.704075709521593E7 ; 1.3980095210615957E10 ; 0.0
20 ; 7399188.30792223 ; 1.0034607178917494E9 ; 9.438305660713863E7 ; 1.4947424868144075E10 ; 0.0
21 ; 7464094.627988474 ; 1.0414455085776554E9 ; 1.0178224491506086E8 ; 1.5950885586035824E10 ; 0.0
22 ; 7514164.361704476 ; 1.081283971206797E9 ; 1.0924633954304934E8 ; 1.699233109461348E10 ; 0.0
23 ; 7574307.0402066 ; 1.1229760451346617E9 ; 1.167605039047538E8 ; 1.807361506582028E10 ; 0.0
24 ; 7634373.7914081365 ; 1.1665216680605843E9 ; 1.243348109449604E8 ; 1.919659111095494E10 ; 0.0
25 ; 7689267.819946384 ; 1.2040490219890728E9 ; 1.3196918473636854E8 ; 2.0363112779015526E10 ; 0.0
26 ; 7746091.230173534 ; 1.2040793299787655E9 ; 1.3965845255631492E8 ; 2.15671618010046E10 ; 0.0
27 ; 7805312.317721676 ; 1.204111143769682E9 ; 1.4740454378648844E8 ; 2.2771241130983368E10 ; 0.0
28 ; 7858771.010428954 ; 1.2041443996890285E9 ; 1.552098561042101E8 ; 2.397535227475305E10 ; 0.0
29 ; 7918240.849450331 ; 1.2041790347822075E9 ; 1.6306862711463907E8 ; 2.517949667444208E10 ; 0.0
30 ; 7972784.8913815105 ; 1.2042149871313806E9 ; 1.709868679640894E8 ; 2.638367570922429E10 ; 0.0
31 ; 8026806.863766551 ; 1.2042521961230006E9 ; 1.789596528554709E8 ; 2.758789069635567E10 ; 0.0
32 ; 8078250.529359826 ; 1.204290602667234E9 ; 1.8698645971923745E8 ; 2.8792142892478672E10 ; 0.0
33 ; 8133189.538178843 ; 1.2043301493728876E9 ; 1.9506471024859726E8 ; 2.9996433495145905E10 ; 0.0
34 ; 8178389.326560888 ; 1.2043707806818666E9 ; 2.031978997867761E8 ; 3.120076364451879E10 ; 0.0
35 ; 8227140.522656392 ; 1.2044124429674122E9 ; 2.1137628911333698E8 ; 3.2405134425200657E10 ; 0.0
36 ; 8290163.853469087 ; 1.2044550846003935E9 ; 2.1960342963599336E8 ; 3.3609546868168068E10 ; 0.0
37 ; 8330572.007761143 ; 1.2044986559878354E9 ; 2.2789359348946244E8 ; 3.481400195276846E10 ; 0.0
38 ; 8379904.47062625 ; 1.204543109587653E9 ; 2.362241654972236E8 ; 3.60185006087563E10 ; 0.0
39 ; 8423810.837530984 ; 1.2045883999033036E9 ; 2.4460406996784985E8 ; 3.7223043718343956E10 ; 0.0
40 ; 8464739.000773663 ; 1.2046344834617498E9 ; 2.5302788080538082E8 ; 3.842763211824726E10 ; 0.0
41 ; 8510439.674419299 ; 1.204681318777793E9 ; 2.614926198061545E8 ; 3.963226660170901E10 ; 0.0
42 ; 8548318.087609006 ; 1.2047288663075037E9 ; 2.700030594805738E8 ; 4.08369479204868E10 ; 0.0
43 ; 8586132.591046942 ; 1.204777088393141E9 ; 2.7855137756818277E8 ; 4.2041676786794304E10 ; 0.0
44 ; 8621683.641445816 ; 1.2048259492016337E9 ; 2.871375101592297E8 ; 4.324645387518745E10 ; 0.0
45 ; 8657854.647463271 ; 1.2048754146584105E9 ; 2.957591938006755E8 ; 4.4451279824389084E10 ; 0.0
46 ; 8690856.986438775 ; 1.2049254523780916E9 ; 3.044170484481388E8 ; 4.565615523904749E10 ; 0.0
47 ; 8721495.190304302 ; 1.204976031593311E9 ; 3.131079054345775E8 ; 4.686108069142558E10 ; 0.0
48 ; 8749999.289709192 ; 1.205027123082727E9 ; 3.218294006248818E8 ; 4.806605672301889E10 ; 0.0
49 ; 8778462.482718308 ; 1.2050786990990791E9 ; 3.30579399914591E8 ; 4.9271083846101616E10 ; 0.0
50 ; 8807145.213548915 ; 1.2051307332980003E9 ; 3.393578623973093E8 ; 5.04761625452007E10 ; 0.0
51 ; 8825673.105704518 ; 1.2051832006681263E9 ; 3.481650076108582E8 ; 5.16812932784987E10 ; 0.0
52 ; 8853816.416806463 ; 1.205236077462945E9 ; 3.5699068071656275E8 ; 5.288647647916683E10 ; 0.0
53 ; 8873258.33321527 ; 1.2052893411347094E9 ; 3.658444971333692E8 ; 5.4091712556629776E10 ; 0.0
54 ; 8896650.619854765 ; 1.2053429702706528E9 ; 3.747177554665845E8 ; 5.529700189776449E10 ; 0.0
55 ; 8926104.705578437 ; 1.2053969445316823E9 ; 3.8361440608643925E8 ; 5.650234486803514E10 ; 0.0
56 ; 8939016.368987199 ; 1.2054512445936475E9 ; 3.925405107920177E8 ; 5.7707741812566826E10 ; 0.0
57 ; 8967919.204279803 ; 1.2055058520912519E9 ; 4.014795271610049E8 ; 5.891319305716048E10 ; 0.0
58 ; 8989873.134902619 ; 1.2055607495646162E9 ; 4.104474463652847E8 ; 6.011869890925173E10 ; 0.0
59 ; 9006948.674779473 ; 1.2056159204084904E9 ; 4.194373195001873E8 ; 6.1324259658816345E10 ; 0.0
60 ; 9036442.701284315 ; 1.205671348824063E9 ; 4.2844426817496675E8 ; 6.252987557922484E10 ; 0.0
61 ; 9058217.99148051 ; 1.2057270197733195E9 ; 4.3748071087625104E8 ; 6.3735546928048904E10 ; 0.0
62 ; 9072990.138775999 ; 1.2057829189358678E9 ; 4.465389288677316E8 ; 6.494127394782223E10 ; 0.0
63 ; 9100324.915179437 ; 1.2058390326681545E9 ; 4.556119190065076E8 ; 6.6147056866758095E10 ; 0.0
64 ; 9119852.75702697 ; 1.2058953479649706E9 ; 4.64712243921687E8 ; 6.735289589942625E10 ; 0.0
65 ; 9133936.961380176 ; 1.205951852423156E9 ; 4.73832096678714E8 ; 6.855879124739122E10 ; 0.0
66 ; 9162757.05796757 ; 1.2060085342074022E9 ; 4.8296603364009416E8 ; 6.976474309981438E10 ; 0.0
67 ; 9182220.225620791 ; 1.2060653820180492E9 ; 4.921287906980617E8 ; 7.097075163402177E10 ; 0.0
68 ; 9198912.318766436 ; 1.2061223850607755E9 ; 5.013110109236825E8 ; 7.217681701603983E10 ; 0.0
69 ; 9213516.437342865 ; 1.206179533018087E9 ; 5.105099232424489E8 ; 7.33829394011006E10 ; 0.0
70 ; 9236865.517487142 ; 1.2062368160224996E9 ; 5.197234396797918E8 ; 7.458911893411868E10 ; 0.0
71 ; 9248057.473882101 ; 1.206294224631329E9 ; 5.28960305197279E8 ; 7.579535575014119E10 ; 0.0
72 ; 9273169.055597417 ; 1.2063517498029895E9 ; 5.38208362671161E8 ; 7.700164997477252E10 ; 0.0
73 ; 9291995.078600608 ; 1.2064093828747165E9 ; 5.474815317267585E8 ; 7.820800172457552E10 ; 0.0
74 ; 9304480.670185637 ; 1.2064671155416331E9 ; 5.567735268053591E8 ; 7.941441110745023E10 ; 0.0
75 ; 9323821.11121598 ; 1.2065249398370712E9 ; 5.660780074755448E8 ; 8.062087822299185E10 ; 0.0
76 ; 9338008.864945848 ; 1.2065828481140811E9 ; 5.754018285867608E8 ; 8.182740316282892E10 ; 0.0
77 ; 9362049.266298184 ; 1.206640833028051E9 ; 5.847398374517066E8 ; 8.3033986010943E10 ; 0.0
78 ; 9363471.224860767 ; 1.2066988875203679E9 ; 5.941018867180048E8 ; 8.424062684397104E10 ; 0.0
79 ; 9372422.864039399 ; 1.206757004803063E9 ; 6.034653579428656E8 ; 8.544732573149141E10 ; 0.0
80 ; 9373608.57188985 ; 1.2068151783443685E9 ; 6.12837780806905E8 ; 8.665408273629448E10 ; 0.0
81 ; 9375000.398826301 ; 1.2068734018551407E9 ; 6.222113893787949E8 ; 8.786089791463885E10 ; 0.0
82 ; 9377313.904523611 ; 1.2069316692760875E9 ; 6.315863897776213E8 ; 8.906777131649399E10 ; 0.0
83 ; 9378284.625385573 ; 1.206989974765753E9 ; 6.409637036821449E8 ; 9.027470298577008E10 ; 0.0
84 ; 9373725.786537876 ; 1.2070483126892111E9 ; 6.503419883075304E8 ; 9.148169296053583E10 ; 0.0
85 ; 9383134.828551983 ; 1.2071066776074238E9 ; 6.597157140940683E8 ; 9.268874127322504E10 ; 0.0
86 ; 9384746.781096708 ; 1.2071650642672231E9 ; 6.690988489226203E8 ; 9.389584795083246E10 ; 0.0
87 ; 9386268.855578395 ; 1.207223467591875E9 ; 6.78483595703717E8 ; 9.510301301509969E10 ; 0.0
88 ; 9385922.043745086 ; 1.2072818826721933E9 ; 6.878698645592954E8 ; 9.631023648269156E10 ; 0.0
89 ; 9385997.973372746 ; 1.2073403047581635E9 ; 6.972557866030405E8 ; 9.751751836536375E10 ; 0.0
90 ; 9388852.372878812 ; 1.2073987292510495E9 ; 7.066417845764132E8 ; 9.872485867012192E10 ; 0.0
91 ; 9387928.66501247 ; 1.2074571516959534E9 ; 7.16030636949292E8 ; 9.993225739937297E10 ; 0.0
92 ; 9380084.954184541 ; 1.2075155677747922E9 ; 7.254185656143044E8 ; 1.0113971455106892E11 ; 0.0
93 ; 9389397.014391242 ; 1.2075739732996795E9 ; 7.34798650568489E8 ; 1.0234723011884372E11 ; 0.0
94 ; 9387620.07050351 ; 1.2076323642066717E9 ; 7.441880475828801E8 ; 1.035548040921434E11 ; 0.0
95 ; 9384680.142320981 ; 1.2076907365498707E9 ; 7.535756676533836E8 ; 1.0476243645635007E11 ; 0.0
96 ; 9382927.430560147 ; 1.2077490864958496E9 ; 7.629603477957046E8 ; 1.0597012719289993E11 ; 0.0
97 ; 9380852.915307857 ; 1.2078074103183882E9 ; 7.723432752262647E8 ; 1.0717787627939578E11 ; 0.0
98 ; 9383234.582594536 ; 1.2078657043935E9 ; 7.817241281415726E8 ; 1.0838568368971417E11 ; 0.0
99 ; 9380736.849935256 ; 1.2079239651947272E9 ; 7.911073627241671E8 ; 1.0959354939410767E11 ; 0.0
100 ; 9374473.939324647 ; 1.2079821892886934E9 ; 8.004880995741024E8 ; 1.108014733593024E11 ; 0.0
101 ; 9373687.536045404 ; 1.2080403733308978E9 ; 8.09862573513427E8 ; 1.120094555485911E11 ; 0.0
102 ; 9369395.386697454 ; 1.2080985140617313E9 ; 8.192362610494725E8 ; 1.13217495921922E11 ; 0.0
103 ; 9362821.594084162 ; 1.20815660830271E9 ; 8.286056564361699E8 ; 1.1442559443598373E11 ; 0.0
104 ; 9363616.906506399 ; 1.2082146529529035E9 ; 8.37968478030254E8 ; 1.1563375104428644E11 ; 0.0
105 ; 9357803.994306749 ; 1.2082726449855561E9 ; 8.473320949367604E8 ; 1.1684196569723933E11 ; 0.0
106 ; 9354577.891505413 ; 1.2083305814448812E9 ; 8.566898989310672E8 ; 1.1805023834222488E11 ; 0.0
107 ; 9357131.63506302 ; 1.2083884594430258E9 ; 8.660444768225726E8 ; 1.1925856892366977E11 ; 0.0
108 ; 9344669.605338946 ; 1.2084462761571894E9 ; 8.754016084576356E8 ; 1.204669573831128E11 ; 0.0
109 ; 9344171.1579169 ; 1.2085040288268926E9 ; 8.847462780629746E8 ; 1.2167540365926999E11 ; 0.0
110 ; 9337464.864734512 ; 1.2085617147513864E9 ; 8.940904492208915E8 ; 1.2288390768809688E11 ; 0.0
111 ; 9336577.452070646 ; 1.2086193312871902E9 ; 9.03427914085626E8 ; 1.2409246940284827E11 ; 0.0
112 ; 9328717.14238475 ; 1.2086768758457568E9 ; 9.127644915376966E8 ; 1.2530108873413545E11 ; 0.0
113 ; 9317504.904016662 ; 1.2087343458912532E9 ; 9.220932086800814E8 ; 1.2650976560998122E11 ; 0.0
114 ; 9312383.974687478 ; 1.2087917389384537E9 ; 9.31410713584098E8 ; 1.2771849995587247E11 ; 0.0
115 ; 9311636.66745061 ; 1.2088490525507345E9 ; 9.407230975587854E8 ; 1.2892729169481091E11 ; 0.0
116 ; 9302529.187692076 ; 1.208906284338171E9 ; 9.500347342262361E8 ; 1.3013614074736165E11 ; 0.0
117 ; 9292844.980107179 ; 1.2089634319557254E9 ; 9.593372634139282E8 ; 1.3134504703169981E11 ; 0.0
118 ; 9286063.477934655 ; 1.209020493101524E9 ; 9.686301083940353E8 ; 1.3255401046365553E11 ; 0.0
119 ; 9274432.126855135 ; 1.2090774655152178E9 ; 9.779161718719699E8 ; 1.3376303095675705E11 ; 0.0
120 ; 9273859.032024715 ; 1.2091343469764206E9 ; 9.871906039988251E8 ; 1.3497210842227226E11 ; 0.0
121 ; 9260507.27896528 ; 1.2091911353032246E9 ; 9.964644630308498E8 ; 1.3618124276924869E11 ; 0.0
122 ; 9252384.89452403 ; 1.209247828350784E9 ; 1.005724970309815E9 ; 1.3739043390455191E11 ; 0.0
123 ; 9244300.975959603 ; 1.209304424009967E9 ; 1.014977355204339E9 ; 1.3859968173290268E11 ; 0.0
124 ; 9234008.306045555 ; 1.2093609202060702E9 ; 1.0242216561802987E9 ; 1.3980898615691266E11 ; 0.0
125 ; 9221290.835963365 ; 1.2094173148975954E9 ; 1.0334556644863442E9 ; 1.4101834707711874E11 ; 0.0
126 ; 9216821.529497154 ; 1.2094736060750794E9 ; 1.0426769553223076E9 ; 1.4222776439201633E11 ; 0.0
127 ; 9200510.675771289 ; 1.2095297917599812E9 ; 1.0518937768518047E9 ; 1.434372379980914E11 ; 0.0
128 ; 9193299.07672456 ; 1.2095858700036197E9 ; 1.061094287527576E9 ; 1.4464676778985138E11 ; 0.0
129 ; 9180647.260156546 ; 1.2096418388861582E9 ; 1.0702875866043005E9 ; 1.45856353659855E11 ; 0.0
130 ; 9164472.288002588 ; 1.2096976965156372E9 ; 1.0794682338644571E9 ; 1.4706599549874118E11 ; 0.0
131 ; 9144041.189353783 ; 1.2097534410270507E9 ; 1.0886327061524596E9 ; 1.482756931952568E11 ; 0.0
132 ; 9116276.66600269 ; 1.2098090705814612E9 ; 1.0977767473418133E9 ; 1.4948544663628384E11 ; 0.0
133 ; 9092692.039697003 ; 1.209864583365159E9 ; 1.106893024007816E9 ; 1.506952557068653E11 ; 0.0
134 ; 9069230.672772042 ; 1.209919977588854E9 ; 1.115985716047513E9 ; 1.5190512029023047E11 ; 0.0
135 ; 9043460.562689643 ; 1.209975251486908E9 ; 1.125054946720285E9 ; 1.5311504026781934E11 ; 0.0
136 ; 9017914.03072607 ; 1.210030403316596E9 ; 1.1340984072829745E9 ; 1.5432501551930624E11 ; 0.0
137 ; 8988166.36034444 ; 1.210085431357405E9 ; 1.1431163213137004E9 ; 1.5553504592262283E11 ; 0.0
138 ; 8963402.744336799 ; 1.2101403339103572E9 ; 1.1521044876740448E9 ; 1.5674513135398022E11 ; 0.0
139 ; 8939429.17850117 ; 1.2101951092973688E9 ; 1.1610678904183817E9 ; 1.579552716878906E11 ; 0.0
140 ; 8915506.018969428 ; 1.2102497558606324E9 ; 1.1700073195968828E9 ; 1.5916546679718796E11 ; 0.0
141 ; 8883907.828732051 ; 1.2103042719620273E9 ; 1.1789228256158524E9 ; 1.6037571655304858E11 ; 0.0
142 ; 8855086.809131652 ; 1.210358655982554E9 ; 1.1878067334445844E9 ; 1.6158602082501062E11 ; 0.0
143 ; 8831239.501626864 ; 1.210412906321795E9 ; 1.196661820253716E9 ; 1.6279637948099316E11 ; 0.0
144 ; 8806083.26507605 ; 1.2104670213973956E9 ; 1.205493059755343E9 ; 1.6400679238731497E11 ; 0.0
145 ; 8791757.059071666 ; 1.2105209996445684E9 ; 1.2142991430204191E9 ; 1.6521725940871237E11 ; 0.0
146 ; 8780806.882615926 ; 1.2105748395156183E9 ; 1.223090900079491E9 ; 1.6642778040835693E11 ; 0.0
147 ; 8768943.297951473 ; 1.210628539479486E9 ; 1.231871706962107E9 ; 1.6763835524787256E11 ; 0.0
148 ; 8758931.76496012 ; 1.210682098021313E9 ; 1.2406406502600584E9 ; 1.6884898378735205E11 ; 0.0
149 ; 8743899.007208215 ; 1.2107355136420214E9 ; 1.2493995820250185E9 ; 1.7005966588537335E11 ; 0.0
150 ; 8736475.695865287 ; 1.210788784857914E9 ; 1.2581434810322266E9 ; 1.7127040139901538E11 ; 0.0
151 ; 8726281.603376163 ; 1.2108419102002895E9 ; 1.266879956728092E9 ; 1.724811901838733E11 ; 0.0
152 ; 8714338.795950329 ; 1.2108948882150722E9 ; 1.275606238331468E9 ; 1.7369203209407358E11 ; 0.0
153 ; 8705351.109938562 ; 1.2109477174624588E9 ; 1.2843205771274185E9 ; 1.7490292698228864E11 ; 0.0
154 ; 8685527.301794712 ; 1.211000396516579E9 ; 1.2930259282373571E9 ; 1.761138746997511E11 ; 0.0
155 ; 8678223.695617765 ; 1.2110529239651682E9 ; 1.301711455539152E9 ; 1.7732487509626767E11 ; 0.0
156 ; 8663493.390960064 ; 1.2111052984092557E9 ; 1.3103896792347696E9 ; 1.7853592802023285E11 ; 0.0
157 ; 8654971.374035189 ; 1.2111575184628642E9 ; 1.3190531726257296E9 ; 1.797470333186421E11 ; 0.0
158 ; 8647435.807526978 ; 1.2112095827527204E9 ; 1.3277081439997647E9 ; 1.8095819083710495E11 ; 0.0
159 ; 8636028.925247405 ; 1.2112614899179788E9 ; 1.3363555798072917E9 ; 1.8216940041985767E11 ; 0.0
160 ; 8618312.848670574 ; 1.2113132386099555E9 ; 1.3449916087325392E9 ; 1.8338066190977563E11 ; 0.0
161 ; 8611112.434377965 ; 1.2113648274918725E9 ; 1.3536099215812097E9 ; 1.845919751483856E11 ; 0.0
162 ; 8599686.85334517 ; 1.2114162552386131E9 ; 1.3622210340155876E9 ; 1.8580333997587747E11 ; 0.0
163 ; 8588792.78200451 ; 1.2114675205364842E9 ; 1.3708207208689327E9 ; 1.870147562311161E11 ; 0.0
164 ; 8576808.492907919 ; 1.2115186220829918E9 ; 1.3794095136509373E9 ; 1.882262237516526E11 ; 0.0
165 ; 8559867.107670847 ; 1.2115695585866215E9 ; 1.3879863221438453E9 ; 1.8943774237373557E11 ; 0.0
166 ; 8546709.597524205 ; 1.21162032876663E9 ; 1.396546189251516E9 ; 1.9064931193232217E11 ; 0.0
167 ; 8543311.994737493 ; 1.2116709313528435E9 ; 1.4050928988490403E9 ; 1.918609322610888E11 ; 0.0
168 ; 8522346.483087799 ; 1.2117213650854645E9 ; 1.4136362108437777E9 ; 1.9307260319244165E11 ; 0.0
169 ; 8516196.31761442 ; 1.211771628714885E9 ; 1.4221585573268654E9 ; 1.942843245575271E11 ; 0.0
170 ; 8505445.617346132 ; 1.2118217210015094E9 ; 1.4306747536444798E9 ; 1.9549609618624197E11 ; 0.0
171 ; 8489168.224785425 ; 1.2118716407155802E9 ; 1.4391801992618258E9 ; 1.9670791790724347E11 ; 0.0
172 ; 8475568.895639641 ; 1.2119213866370134E9 ; 1.4476693674866111E9 ; 1.9791978954795905E11 ; 0.0
173 ; 8467595.177320052 ; 1.2119709575552404E9 ; 1.4561449363822508E9 ; 1.9913171093459607E11 ; 0.0
174 ; 8460323.383220611 ; 1.2120203522690532E9 ; 1.4646125315595708E9 ; 2.003436818921513E11 ; 0.0
175 ; 8447241.715335302 ; 1.2120695695864584E9 ; 1.4730728549427915E9 ; 2.0155570224442035E11 ; 0.0
176 ; 8440779.437065458 ; 1.2121186083245347E9 ; 1.4815200966581268E9 ; 2.027677718140068E11 ; 0.0
177 ; 8432703.386706932 ; 1.2121674673092964E9 ; 1.4899608760951922E9 ; 2.0397989042233133E11 ; 0.0
178 ; 8422030.906405997 ; 1.2122161453755634E9 ; 1.498393579481899E9 ; 2.0519205788964062E11 ; 0.0
179 ; 8414788.06982895 ; 1.2122646413668332E9 ; 1.506815610388305E9 ; 2.0640427403501617E11 ; 0.0
180 ; 8404373.355115589 ; 1.2123129541351612E9 ; 1.515230398458134E9 ; 2.07616538676383E11 ; 0.0
181 ; 8402083.530482922 ; 1.2123610825410419E9 ; 1.5236347718132496E9 ; 2.0882885163051816E11 ; 0.0
182 ; 8391916.668539973 ; 1.212409025453298E9 ; 1.5320368553437326E9 ; 2.100412127130592E11 ; 0.0
183 ; 8386945.459412255 ; 1.212456781748971E9 ; 1.5404287720122726E9 ; 2.112536217385125E11 ; 0.0
184 ; 8379749.537840435 ; 1.2125043503132167E9 ; 1.548815717471685E9 ; 2.1246607852026147E11 ; 0.0
185 ; 8367877.098797654 ; 1.2125517300392065E9 ; 1.5571954670095253E9 ; 2.1367858287057468E11 ; 0.0
186 ; 8363147.366141819 ; 1.2125989198280277E9 ; 1.5655633441083229E9 ; 2.148911346006139E11 ; 0.0
187 ; 8350762.448210065 ; 1.2126459185885944E9 ; 1.5739264914744647E9 ; 2.1610373352044193E11 ; 0.0
188 ; 8345435.569553377 ; 1.2126927252375543E9 ; 1.5822772539226747E9 ; 2.1731637943903052E11 ; 0.0
189 ; 8335295.217140318 ; 1.2127393386992044E9 ; 1.590622689492228E9 ; 2.1852907216426807E11 ; 0.0
190 ; 8338113.351079559 ; 1.2127857579054086E9 ; 1.5989579847093685E9 ; 2.197418115029673E11 ; 0.0
191 ; 8320848.467690673 ; 1.212831981795515E9 ; 1.607296098060448E9 ; 2.2095459726087268E11 ; 0.0
192 ; 8316317.438201753 ; 1.2128780093162827E9 ; 1.6156169465281386E9 ; 2.2216742924266818E11 ; 0.0
193 ; 8302302.634231834 ; 1.212923839421804E9 ; 1.6239332639663403E9 ; 2.2338030725198447E11 ; 0.0
194 ; 8296725.9476716705 ; 1.212969471073436E9 ; 1.632235566600572E9 ; 2.2459323109140628E11 ; 0.0
195 ; 8292424.742044436 ; 1.2130149032397308E9 ; 1.6405322925482438E9 ; 2.258062005624797E11 ; 0.0
196 ; 8283779.069898529 ; 1.213060134896369E9 ; 1.6488247172902882E9 ; 2.2701921546571942E11 ; 0.0
197 ; 8275365.645199452 ; 1.2131051650260973E9 ; 1.6571084963601868E9 ; 2.2823227560061578E11 ; 0.0
198 ; 8265514.769284343 ; 1.2131499926186657E9 ; 1.6653838620053864E9 ; 2.2944538076564188E11 ; 0.0
199 ; 8258883.424621867 ; 1.2131946166707702E9 ; 1.6736493767746706E9 ; 2.3065853075826053E11 ; 0.0
200 ; 8252829.758866861 ; 1.208598325538071E9 ; 1.6819082601992924E9 ; 2.318717253749313E11 ; 0.0
201 ; 8238384.86386499 ; 1.09050040786608E9 ; 1.6901610899581592E9 ; 2.330803237004694E11 ; 0.0
