CSV File for the Network on Day 197
1 - Minute m 
2 - Power Consumed at minute m 
3 - Power Produced at minute m 
4 - Energy Consumed since the beginning of the day 
5 - Energy Produced since the beginning of the day 
6 - Energy Lost since the beginning of the day 
 
0 ; 4068683.2177885626 ; 6.337719664298526E8 ; 0.0 ; 0.0 ; 0.0
1 ; 4105531.7342037437 ; 6.346808978049514E8 ; 4068683.2177885626 ; 6.337719664298526E8 ; 0.0
2 ; 4156926.3329549143 ; 6.374433780997118E8 ; 8174214.951992307 ; 1.2684528642348042E9 ; 0.0
3 ; 4198333.226586401 ; 6.42059436726474E8 ; 1.233114128494722E7 ; 1.905896242334516E9 ; 0.0
4 ; 4254891.302186968 ; 6.485291003209715E8 ; 1.6529474511533622E7 ; 2.5479556790609903E9 ; 0.0
5 ; 4334717.101869926 ; 6.568523925041668E8 ; 2.078436581372059E7 ; 3.196484779381962E9 ; 0.0
6 ; 4434658.410240489 ; 6.670293336641884E8 ; 2.5119082915590517E7 ; 3.8533371718861284E9 ; 0.0
7 ; 4563634.423112441 ; 6.790599407628875E8 ; 2.9553741325831007E7 ; 4.520366505550317E9 ; 0.0
8 ; 4753602.006655232 ; 6.929442271711895E8 ; 3.411737574894345E7 ; 5.199426446313204E9 ; 0.0
9 ; 5042455.458880896 ; 7.086822025369122E8 ; 3.887097775559868E7 ; 5.892370673484393E9 ; 0.0
10 ; 5468542.20894266 ; 7.262738726880741E8 ; 4.391343321447957E7 ; 6.601052876021305E9 ; 0.0
11 ; 6172374.2594842445 ; 7.457192395739493E8 ; 4.938197542342223E7 ; 7.327326748709379E9 ; 0.0
12 ; 7277477.086522817 ; 7.670183012452637E8 ; 5.555434968290648E7 ; 8.073045988283329E9 ; 0.0
13 ; 8342004.268950872 ; 7.901710518739986E8 ; 6.2831826769429296E7 ; 8.840064289528593E9 ; 0.0
14 ; 8472788.916138437 ; 8.151774818123367E8 ; 7.117383103838018E7 ; 9.630235341402592E9 ; 0.0
15 ; 8526079.713128382 ; 8.42037577689352E8 ; 7.964661995451862E7 ; 1.0445412823214928E10 ; 0.0
16 ; 8583631.232826157 ; 8.707513225431937E8 ; 8.8172699667647E7 ; 1.128745040090428E10 ; 0.0
17 ; 8640535.21320682 ; 9.013186959857333E8 ; 9.675633090047316E7 ; 1.2158201723447474E10 ; 0.0
18 ; 8697335.370436678 ; 9.33739674396008E8 ; 1.0539686611367998E8 ; 1.3059520419433207E10 ; 0.0
19 ; 8750660.644205606 ; 9.680142311382847E8 ; 1.1409420148411666E8 ; 1.3993260093829214E10 ; 0.0
20 ; 8807089.474420844 ; 1.0041423368002228E9 ; 1.2284486212832226E8 ; 1.4961274324967499E10 ; 0.0
21 ; 8861707.053342214 ; 1.0421239594464327E9 ; 1.316519516027431E8 ; 1.5965416661767721E10 ; 0.0
22 ; 8915949.26045122 ; 1.0819590648826919E9 ; 1.405136586560853E8 ; 1.7007540621214153E10 ; 0.0
23 ; 8971460.144166004 ; 1.1236476169261935E9 ; 1.4942960791653654E8 ; 1.8089499686096844E10 ; 0.0
24 ; 9028500.879574323 ; 1.167189577677443E9 ; 1.5840106806070253E8 ; 1.9213147303023037E10 ; 0.0
25 ; 9090401.13540227 ; 1.2047131531788692E9 ; 1.6742956894027686E8 ; 2.038033688070048E10 ; 0.0
26 ; 9133735.373058286 ; 1.2047395898996868E9 ; 1.7651997007567912E8 ; 2.158505003387935E10 ; 0.0
27 ; 9202467.97463213 ; 1.2047674621396573E9 ; 1.856537054487374E8 ; 2.2789789623779037E10 ; 0.0
28 ; 9252721.753405236 ; 1.204796727752275E9 ; 1.9485617342336953E8 ; 2.3994557085918694E10 ; 0.0
29 ; 9301377.80966939 ; 1.2048273441328783E9 ; 2.0410889517677477E8 ; 2.5199353813670967E10 ; 0.0
30 ; 9360288.077472348 ; 1.2048592684317815E9 ; 2.1341027298644418E8 ; 2.6404181157803844E10 ; 0.0
31 ; 9412976.056186719 ; 1.2048924577507539E9 ; 2.2277056106391653E8 ; 2.7609040426235626E10 ; 0.0
32 ; 9464016.171089873 ; 1.2049268693221698E9 ; 2.3218353712010324E8 ; 2.881393288398638E10 ; 0.0
33 ; 9509848.244253121 ; 1.204962460670533E9 ; 2.4164755329119313E8 ; 3.001885975330855E10 ; 0.0
34 ; 9558514.96845326 ; 1.2049991897564387E9 ; 2.5115740153544626E8 ; 3.1223822213979084E10 ; 0.0
35 ; 9612197.225685084 ; 1.2050370151033168E9 ; 2.607159165038995E8 ; 3.2428821403735523E10 ; 0.0
36 ; 9655111.071083184 ; 1.2050758959075458E9 ; 2.703281137295846E8 ; 3.363385841883884E10 ; 0.0
37 ; 9705242.916055908 ; 1.2051157921327176E9 ; 2.7998322480066776E8 ; 3.483893431474638E10 ; 0.0
38 ; 9742818.22820323 ; 1.2051566645889692E9 ; 2.896884677167237E8 ; 3.6044050106879105E10 ; 0.0
39 ; 9784174.248256661 ; 1.2051984749984016E9 ; 2.994312859449269E8 ; 3.724920677146807E10 ; 0.0
40 ; 9830959.375773065 ; 1.2052411860476623E9 ; 3.092154601931836E8 ; 3.845440524646648E10 ; 0.0
41 ; 9867127.610438582 ; 1.2052847614288025E9 ; 3.190464195689567E8 ; 3.965964643251414E10 ; 0.0
42 ; 9907733.831943851 ; 1.2053291658695207E9 ; 3.2891354717939526E8 ; 4.086493119394294E10 ; 0.0
43 ; 9940958.027451087 ; 1.2053743651538851E9 ; 3.388212810113391E8 ; 4.207026035981246E10 ; 0.0
44 ; 9978212.670964895 ; 1.2054203261345837E9 ; 3.487622390387902E8 ; 4.327563472496635E10 ; 0.0
45 ; 1.0011132452353371E7 ; 1.205467016737722E9 ; 3.587404517097551E8 ; 4.448105505110093E10 ; 0.0
46 ; 1.0043471436497658E7 ; 1.2055144059611013E9 ; 3.687515841621085E8 ; 4.568652206783865E10 ; 0.0
47 ; 1.0067374637004877E7 ; 1.2055624638668742E9 ; 3.787950555986061E8 ; 4.689203647379975E10 ; 0.0
48 ; 1.0103469720283424E7 ; 1.2056111615693805E9 ; 3.8886243023561096E8 ; 4.8097598937666626E10 ; 0.0
49 ; 1.012249042796821E7 ; 1.205660471218919E9 ; 3.989658999558944E8 ; 4.930321009923601E10 ; 0.0
50 ; 1.015483301462156E7 ; 1.2057103659821253E9 ; 4.090883903838626E8 ; 5.0508870570454926E10 ; 0.0
51 ; 1.0168916339114537E7 ; 1.2057608200195684E9 ; 4.192432233984842E8 ; 5.171458093643705E10 ; 0.0
52 ; 1.0184295685370741E7 ; 1.2058118084611106E9 ; 4.294121397375987E8 ; 5.292034175645662E10 ; 0.0
53 ; 1.0217660656985296E7 ; 1.205863307379509E9 ; 4.3959643542296946E8 ; 5.412615356491773E10 ; 0.0
54 ; 1.0229529555557381E7 ; 1.2059152937626967E9 ; 4.4981409607995474E8 ; 5.533201687229724E10 ; 0.0
55 ; 1.0257629211359296E7 ; 1.205967745485104E9 ; 4.600436256355121E8 ; 5.653793216605994E10 ; 0.0
56 ; 1.0274615251564777E7 ; 1.2060206412783515E9 ; 4.7030125484687144E8 ; 5.7743899911545044E10 ; 0.0
57 ; 1.0297092673134094E7 ; 1.2060739607015965E9 ; 4.8057587009843624E8 ; 5.8949920552823395E10 ; 0.0
58 ; 1.0321210544968568E7 ; 1.2061276841117666E9 ; 4.908729627715703E8 ; 6.0155994513524994E10 ; 0.0
59 ; 1.0334877402235547E7 ; 1.2061817926338906E9 ; 5.011941733165389E8 ; 6.136212219763676E10 ; 0.0
60 ; 1.0353307130563155E7 ; 1.2062362681316957E9 ; 5.1152905071877444E8 ; 6.2568303990270645E10 ; 0.0
61 ; 1.0371830430168888E7 ; 1.2062910931786122E9 ; 5.218823578493376E8 ; 6.377454025840234E10 ; 0.0
62 ; 1.0390145113903323E7 ; 1.2063462510293064E9 ; 5.3225418827950644E8 ; 6.4980831351580956E10 ; 0.0
63 ; 1.0400392238720704E7 ; 1.2064017255918365E9 ; 5.426443333934097E8 ; 6.618717760261026E10 ; 0.0
64 ; 1.0432030559474368E7 ; 1.2064575014005024E9 ; 5.530447256321304E8 ; 6.7393579328202095E10 ; 0.0
65 ; 1.0449931109763807E7 ; 1.2065135635894582E9 ; 5.634767561916047E8 ; 6.86000368296026E10 ; 0.0
66 ; 1.0464329997019192E7 ; 1.2065698978671167E9 ; 5.739266873013686E8 ; 6.980655039319206E10 ; 0.0
67 ; 1.0488553672722805E7 ; 1.206626490491394E9 ; 5.843910172983878E8 ; 7.101312029105917E10 ; 0.0
68 ; 1.0499071214302015E7 ; 1.2066833282458E9 ; 5.948795709711106E8 ; 7.221974678155057E10 ; 0.0
69 ; 1.051798109692003E7 ; 1.2067403984163966E9 ; 6.053786421854126E8 ; 7.342643010979637E10 ; 0.0
70 ; 1.053170455521629E7 ; 1.2067976887696214E9 ; 6.158966232823327E8 ; 7.463317050821277E10 ; 0.0
71 ; 1.0550810385405919E7 ; 1.2068551875309741E9 ; 6.26428327837549E8 ; 7.583996819698239E10 ; 0.0
72 ; 1.0564939226558315E7 ; 1.2069128833645625E9 ; 6.369791382229549E8 ; 7.704682338451337E10 ; 0.0
73 ; 1.0574344115002831E7 ; 1.2069707653534882E9 ; 6.475440774495132E8 ; 7.825373626787793E10 ; 0.0
74 ; 1.0593366426988386E7 ; 1.2070288229810617E9 ; 6.581184215645161E8 ; 7.946070703323141E10 ; 0.0
75 ; 1.0609739509846274E7 ; 1.2070870461128232E9 ; 6.687117879915044E8 ; 8.066773585621248E10 ; 0.0
76 ; 1.0624668439035906E7 ; 1.2071454249793506E9 ; 6.793215275013508E8 ; 8.18748229023253E10 ; 0.0
77 ; 1.0634687199132346E7 ; 1.2072039501598299E9 ; 6.899461959403867E8 ; 8.308196832730466E10 ; 0.0
78 ; 1.0641932451190159E7 ; 1.207262612566364E9 ; 7.00580883139519E8 ; 8.42891722774645E10 ; 0.0
79 ; 1.064299486353163E7 ; 1.207321403428997E9 ; 7.112228155907091E8 ; 8.549643489003085E10 ; 0.0
80 ; 1.0648562831608543E7 ; 1.2073803142814221E9 ; 7.218658104542407E8 ; 8.670375629345985E10 ; 0.0
81 ; 1.0646451913997289E7 ; 1.2074393369473538E9 ; 7.325143732858492E8 ; 8.791113660774127E10 ; 0.0
82 ; 1.0643882091428002E7 ; 1.207498463527534E9 ; 7.431608251998465E8 ; 8.911857594468863E10 ; 0.0
83 ; 1.064317724788344E7 ; 1.2075576863873491E9 ; 7.538047072912745E8 ; 9.032607440821616E10 ; 0.0
84 ; 1.0640297908926299E7 ; 1.207616998145029E9 ; 7.64447884539158E8 ; 9.15336320946035E10 ; 0.0
85 ; 1.0652944413879525E7 ; 1.2076763916604054E9 ; 7.750881824480842E8 ; 9.274124909274854E10 ; 0.0
86 ; 1.0643779235538192E7 ; 1.2077358600242054E9 ; 7.857411268619637E8 ; 9.394892548440894E10 ; 0.0
87 ; 1.0644179594412781E7 ; 1.2077953965478537E9 ; 7.96384906097502E8 ; 9.515666134443314E10 ; 0.0
88 ; 1.0644755773008965E7 ; 1.2078549947537618E9 ; 8.070290856919148E8 ; 9.636445674098099E10 ; 0.0
89 ; 1.0636764701023702E7 ; 1.2079146483660836E9 ; 8.176738414649237E8 ; 9.757231173573476E10 ; 0.0
90 ; 1.063421395484378E7 ; 1.2079743513019104E9 ; 8.283106061659474E8 ; 9.878022638410085E10 ; 0.0
91 ; 1.0637997528858513E7 ; 1.2080340976628911E9 ; 8.389448201207912E8 ; 9.998820073540276E10 ; 0.0
92 ; 1.0634552594571345E7 ; 1.2080938817272506E9 ; 8.495828176496497E8 ; 1.0119623483306564E11 ; 0.0
93 ; 1.062876675300156E7 ; 1.2081536979421937E9 ; 8.602173702442211E8 ; 1.024043287147929E11 ; 0.0
94 ; 1.0631779582854357E7 ; 1.2082135409166703E9 ; 8.708461369972227E8 ; 1.0361248241273509E11 ; 0.0
95 ; 1.0618657269672902E7 ; 1.208273405414487E9 ; 8.81477916580077E8 ; 1.0482069595365176E11 ; 0.0
96 ; 1.0619214248198971E7 ; 1.2083332863477488E9 ; 8.920965738497499E8 ; 1.0602896935906625E11 ; 0.0
97 ; 1.061313107688167E7 ; 1.208393178770613E9 ; 9.027157880979489E8 ; 1.07237302645414E11 ; 0.0
98 ; 1.0614848301617844E7 ; 1.2084530778733397E9 ; 9.133289191748306E8 ; 1.0844569582418462E11 ; 0.0
99 ; 1.0602387694942364E7 ; 1.2085129789766254E9 ; 9.239437674764484E8 ; 1.0965414890205795E11 ; 0.0
100 ; 1.060062399416286E7 ; 1.2085728775262063E9 ; 9.345461551713908E8 ; 1.1086266188103458E11 ; 0.0
101 ; 1.0597279689676112E7 ; 1.2086327690877142E9 ; 9.451467791655537E8 ; 1.1207123475856078E11 ; 0.0
102 ; 1.0587227325659752E7 ; 1.208692649341778E9 ; 9.557440588552299E8 ; 1.1327986752764848E11 ; 0.0
103 ; 1.0582160883259755E7 ; 1.2087525140793524E9 ; 9.663312861808896E8 ; 1.1448856017699026E11 ; 0.0
104 ; 1.0581535268432312E7 ; 1.2088123591972685E9 ; 9.769134470641494E8 ; 1.1569731269106961E11 ; 0.0
105 ; 1.0570189526613824E7 ; 1.20887218069399E9 ; 9.874949823325816E8 ; 1.1690612505026688E11 ; 0.0
106 ; 1.056234216141902E7 ; 1.2089319746655679E9 ; 9.980651718591955E8 ; 1.1811499723096086E11 ; 0.0
107 ; 1.0552487330104839E7 ; 1.208991737301784E9 ; 1.0086275140206145E9 ; 1.1932392920562643E11 ; 0.0
108 ; 1.0550170164420458E7 ; 1.20905146488247E9 ; 1.0191800013507193E9 ; 1.2053292094292822E11 ; 0.0
109 ; 1.0547632571531426E7 ; 1.2091111537739997E9 ; 1.0297301715151398E9 ; 1.217419724078107E11 ; 0.0
110 ; 1.0528543151579853E7 ; 1.2091708004259388E9 ; 1.0402778040866712E9 ; 1.229510835615847E11 ; 0.0
111 ; 1.0525734358132008E7 ; 1.2092304013678513E9 ; 1.0508063472382511E9 ; 1.2416025436201064E11 ; 0.0
112 ; 1.0518692216349525E7 ; 1.2092899532062478E9 ; 1.0613320815963831E9 ; 1.2536948476337848E11 ; 0.0
113 ; 1.0511051837194648E7 ; 1.2093494526216755E9 ; 1.0718507738127326E9 ; 1.2657877471658473E11 ; 0.0
114 ; 1.0496705320845183E7 ; 1.2094088963659372E9 ; 1.0823618256499271E9 ; 1.277881241692064E11 ; 0.0
115 ; 1.048975211054364E7 ; 1.2094682812594376E9 ; 1.0928585309707723E9 ; 1.2899753306557234E11 ; 0.0
116 ; 1.0477092163302504E7 ; 1.2095276041886454E9 ; 1.103348283081316E9 ; 1.3020700134683179E11 ; 0.0
117 ; 1.0465353744649652E7 ; 1.2095868621036737E9 ; 1.1138253752446184E9 ; 1.3141652895102043E11 ; 0.0
118 ; 1.0457076391641973E7 ; 1.2096460520159616E9 ; 1.124290728989268E9 ; 1.326261158131241E11 ; 0.0
119 ; 1.0440495963781413E7 ; 1.2097051709960642E9 ; 1.13474780538091E9 ; 1.3383576186514006E11 ; 0.0
120 ; 1.0434959525624022E7 ; 1.2097642161715348E9 ; 1.1451883013446913E9 ; 1.3504546703613612E11 ; 0.0
121 ; 1.0424351410679586E7 ; 1.209823184724905E9 ; 1.1556232608703153E9 ; 1.3625523125230766E11 ; 0.0
122 ; 1.041712877000511E7 ; 1.2098820738917494E9 ; 1.166047612280995E9 ; 1.3746505443703256E11 ; 0.0
123 ; 1.0398501193238795E7 ; 1.2099408809588351E9 ; 1.176464741051E9 ; 1.3867493651092432E11 ; 0.0
124 ; 1.038262602213996E7 ; 1.209999603262352E9 ; 1.1868632422442389E9 ; 1.3988487739188315E11 ; 0.0
125 ; 1.0378586889728753E7 ; 1.2100582381862197E9 ; 1.1972458682663789E9 ; 1.410948769951455E11 ; 0.0
126 ; 1.0362788282421496E7 ; 1.2101167831604652E9 ; 1.2076244551561077E9 ; 1.4230493523333173E11 ; 0.0
127 ; 1.0349440288642857E7 ; 1.2101752356596723E9 ; 1.2179872434385293E9 ; 1.435150520164922E11 ; 0.0
128 ; 1.033504013205848E7 ; 1.2102335932014942E9 ; 1.2283366837271721E9 ; 1.4472522725215186E11 ; 0.0
129 ; 1.0321320515256763E7 ; 1.210291853345232E9 ; 1.2386717238592305E9 ; 1.4593546084535336E11 ; 0.0
130 ; 1.030529007098005E7 ; 1.2103500136904707E9 ; 1.2489930443744874E9 ; 1.471457526986986E11 ; 0.0
131 ; 1.0277978162625292E7 ; 1.2104080718757727E9 ; 1.2592983344454675E9 ; 1.4835610271238907E11 ; 0.0
132 ; 1.0253631285540253E7 ; 1.2104660255774279E9 ; 1.2695763126080928E9 ; 1.4956651078426483E11 ; 0.0
133 ; 1.022817913824421E7 ; 1.2105238725082526E9 ; 1.2798299438936331E9 ; 1.5077697680984225E11 ; 0.0
134 ; 1.0198078726768717E7 ; 1.2105816104164414E9 ; 1.2900581230318773E9 ; 1.519875006823505E11 ; 0.0
135 ; 1.0165183751896603E7 ; 1.2106392370844636E9 ; 1.300256201758646E9 ; 1.5319808229276694E11 ; 0.0
136 ; 1.0139374134838501E7 ; 1.2106967503280053E9 ; 1.3104213855105426E9 ; 1.544087215298514E11 ; 0.0
137 ; 1.0105290857152876E7 ; 1.2107541479949582E9 ; 1.3205607596453812E9 ; 1.556194182801794E11 ; 0.0
138 ; 1.0073217500761604E7 ; 1.2108114279644432E9 ; 1.3306660505025342E9 ; 1.5683017242817438E11 ; 0.0
139 ; 1.0052370334502688E7 ; 1.2108685881458795E9 ; 1.3407392680032957E9 ; 1.5804098385613882E11 ; 0.0
140 ; 1.0023971384302806E7 ; 1.2109256264780874E9 ; 1.3507916383377984E9 ; 1.592518524442847E11 ; 0.0
141 ; 9991302.184428178 ; 1.2109825409284296E9 ; 1.3608156097221012E9 ; 1.604627780707628E11 ; 0.0
142 ; 9960423.223857643 ; 1.2110393294919837E9 ; 1.3708069119065294E9 ; 1.6167376061169122E11 ; 0.0
143 ; 9932618.276503678 ; 1.2110959901907516E9 ; 1.380767335130387E9 ; 1.628847999411832E11 ; 0.0
144 ; 9898900.745660424 ; 1.2111525210728965E9 ; 1.3906999534068906E9 ; 1.6409589593137396E11 ; 0.0
145 ; 9882027.790966878 ; 1.2112089202120128E9 ; 1.4005988541525512E9 ; 1.6530704845244687E11 ; 0.0
146 ; 9872091.440166714 ; 1.211265185706423E9 ; 1.4104808819435182E9 ; 1.6651825737265887E11 ; 0.0
147 ; 9856065.002995232 ; 1.211321315678502E9 ; 1.4203529733836849E9 ; 1.677295225583653E11 ; 0.0
148 ; 9837498.463437032 ; 1.211377308274029E9 ; 1.4302090383866801E9 ; 1.689408438740438E11 ; 0.0
149 ; 9826784.003347669 ; 1.2114331616615634E9 ; 1.4400465368501172E9 ; 1.701522211823178E11 ; 0.0
150 ; 9809944.499200702 ; 1.2114888740318463E9 ; 1.4498733208534648E9 ; 1.7136365434397937E11 ; 0.0
151 ; 9795902.517312393 ; 1.2115444435972219E9 ; 1.4596832653526654E9 ; 1.7257514321801123E11 ; 0.0
152 ; 9789488.716865133 ; 1.2115998685910854E9 ; 1.4694791678699777E9 ; 1.7378668766160846E11 ; 0.0
153 ; 9771513.167302059 ; 1.2116551472673473E9 ; 1.4792686565868428E9 ; 1.7499828753019955E11 ; 0.0
154 ; 9756325.701370075 ; 1.211710277899923E9 ; 1.489040169754145E9 ; 1.762099426774669E11 ; 0.0
155 ; 9741950.873169383 ; 1.2117652587822378E9 ; 1.498796495455515E9 ; 1.7742165295536682E11 ; 0.0
156 ; 9721521.336258579 ; 1.2118200882267506E9 ; 1.5085384463286843E9 ; 1.7863341821414905E11 ; 0.0
157 ; 9716731.137838798 ; 1.2118747645645E9 ; 1.518259967664943E9 ; 1.798452383023758E11 ; 0.0
158 ; 9698327.964442043 ; 1.211929286144662E9 ; 1.5279766988027818E9 ; 1.810571130669403E11 ; 0.0
159 ; 9685101.806400232 ; 1.211983651334126E9 ; 1.5376750267672238E9 ; 1.8226904235308496E11 ; 0.0
160 ; 9668388.318832368 ; 1.2120378585170898E9 ; 1.5473601285736241E9 ; 1.834810260044191E11 ; 0.0
161 ; 9649546.434317034 ; 1.2120919060946631E9 ; 1.5570285168924565E9 ; 1.846930638629362E11 ; 0.0
162 ; 9634439.024714515 ; 1.2121457924844923E9 ; 1.5666780633267736E9 ; 1.8590515576903085E11 ; 0.0
163 ; 9623098.605588648 ; 1.212199516120395E9 ; 1.576312502351488E9 ; 1.8711730156151535E11 ; 0.0
164 ; 9610721.255358113 ; 1.2122530754520082E9 ; 1.5859356009570768E9 ; 1.8832950107763574E11 ; 0.0
165 ; 9594330.087252881 ; 1.2123064689444518E9 ; 1.595546322212435E9 ; 1.8954175415308774E11 ; 0.0
166 ; 9573376.455265224 ; 1.2123596950780015E9 ; 1.6051406522996879E9 ; 1.907540606220322E11 ; 0.0
167 ; 9564106.254575625 ; 1.212412752347775E9 ; 1.6147140287549531E9 ; 1.919664203171102E11 ; 0.0
168 ; 9547532.364987865 ; 1.2124656392634296E9 ; 1.6242781350095289E9 ; 1.9317883306945798E11 ; 0.0
169 ; 9532576.016244855 ; 1.2125183543488703E9 ; 1.6338256673745167E9 ; 1.943912987087214E11 ; 0.0
170 ; 9514074.02764465 ; 1.2125708961419683E9 ; 1.6433582433907616E9 ; 1.9560381706307028E11 ; 0.0
171 ; 9492339.74377215 ; 1.2126232631942902E9 ; 1.6528723174184062E9 ; 1.9681638795921225E11 ; 0.0
172 ; 9475013.504987296 ; 1.212675454070836E9 ; 1.6623646571621785E9 ; 1.9802901122240656E11 ; 0.0
173 ; 9467891.570488298 ; 1.2127274673497872E9 ; 1.6718396706671658E9 ; 1.992416866764774E11 ; 0.0
174 ; 9457246.691589613 ; 1.2127793016222634E9 ; 1.681307562237654E9 ; 2.0045441414382718E11 ; 0.0
175 ; 9449502.76763394 ; 1.212830955492088E9 ; 1.6907648089292436E9 ; 2.0166719344544943E11 ; 0.0
176 ; 9439168.997477448 ; 1.2128824275755615E9 ; 1.7002143116968775E9 ; 2.0288002440094153E11 ; 0.0
177 ; 9422550.87826817 ; 1.2129337165012424E9 ; 1.709653480694355E9 ; 2.040929068285171E11 ; 0.0
178 ; 9413841.690803569 ; 1.212984820909738E9 ; 1.7190760315726233E9 ; 2.0530584054501834E11 ; 0.0
179 ; 9402309.26745543 ; 1.2130357394535003E9 ; 1.7284898732634268E9 ; 2.0651882536592807E11 ; 0.0
180 ; 9389792.176139548 ; 1.2130864707966294E9 ; 1.7378921825308821E9 ; 2.0773186110538156E11 ; 0.0
181 ; 9384975.979039647 ; 1.2131370136146846E9 ; 1.7472819747070217E9 ; 2.089449475761782E11 ; 0.0
182 ; 9374858.505821737 ; 1.213187366594502E9 ; 1.7566669506860614E9 ; 2.1015808458979288E11 ; 0.0
183 ; 9362570.407260988 ; 1.2132375284340172E9 ; 1.766041809191883E9 ; 2.113712719563874E11 ; 0.0
184 ; 9350924.70349458 ; 1.2132874978420944E9 ; 1.775404379599144E9 ; 2.125845094848214E11 ; 0.0
185 ; 9344960.693158528 ; 1.213337273538365E9 ; 1.7847553043026385E9 ; 2.137977969826635E11 ; 0.0
186 ; 9340474.620727988 ; 1.2133868542530644E9 ; 1.7941002649957972E9 ; 2.1501113425620187E11 ; 0.0
187 ; 9326850.719167862 ; 1.213436238726882E9 ; 1.8034407396165252E9 ; 2.1622452111045493E11 ; 0.0
188 ; 9310310.248821303 ; 1.2134854257108123E9 ; 1.8127675903356931E9 ; 2.174379573491818E11 ; 0.0
189 ; 9296159.228339128 ; 1.2135344139660118E9 ; 1.8220779005845144E9 ; 2.186514427748926E11 ; 0.0
190 ; 9288444.1963039 ; 1.2135832022636592E9 ; 1.8313740598128536E9 ; 2.198649771888586E11 ; 0.0
191 ; 9279388.005018149 ; 1.2136317893848262E9 ; 1.8406625040091574E9 ; 2.2107856039112228E11 ; 0.0
192 ; 9273759.43751434 ; 1.2136801741203444E9 ; 1.8499418920141757E9 ; 2.222921921805071E11 ; 0.0
193 ; 9259351.760477299 ; 1.2137283552706828E9 ; 1.85921565145169E9 ; 2.2350587235462744E11 ; 0.0
194 ; 9241785.999496046 ; 1.2137763316458282E9 ; 1.8684750032121673E9 ; 2.2471960070989813E11 ; 0.0
195 ; 9229196.039627707 ; 1.2138241020651674E9 ; 1.8777167892116632E9 ; 2.2593337704154395E11 ; 0.0
196 ; 9233296.811362006 ; 1.213871665357377E9 ; 1.886945985251291E9 ; 2.271472011436091E11 ; 0.0
197 ; 9217075.235787671 ; 1.2139190203603125E9 ; 1.896179282062653E9 ; 2.283610728089665E11 ; 0.0
198 ; 9206325.094880005 ; 1.2139661659209068E9 ; 1.9053963572984407E9 ; 2.295749918293268E11 ; 0.0
