CSV File for the Network on Day 19
1 - Minute m 
2 - Power Consumed at minute m 
3 - Power Produced at minute m 
4 - Energy Consumed since the beginning of the day 
5 - Energy Produced since the beginning of the day 
6 - Energy Lost since the beginning of the day 
 
0 ; 3.8411752574241586E7 ; 6.317464033172528E8 ; 0.0 ; 0.0 ; 0.0
1 ; 3.843901553063855E7 ; 6.326247417238913E8 ; 3.8411752574241586E7 ; 6.317464033172528E8 ; 0.0
2 ; 3.848682120654653E7 ; 6.353571355111817E8 ; 7.685076810488014E7 ; 1.264371145041144E9 ; 0.0
3 ; 3.8541544415140994E7 ; 6.399440554841273E8 ; 1.1533758931142667E8 ; 1.8997282805523257E9 ; 0.0
4 ; 3.859158506362139E7 ; 6.463860735565977E8 ; 1.5387913372656766E8 ; 2.5396723360364532E9 ; 0.0
5 ; 3.86637968116604E7 ; 6.546838704530553E8 ; 1.9247071879018903E8 ; 3.186058409593051E9 ; 0.0
6 ; 3.875107972428262E7 ; 6.648382295331801E8 ; 2.3113451560184944E8 ; 3.8407422800461063E9 ; 0.0
7 ; 3.888384345729153E7 ; 6.768500055247595E8 ; 2.6988559532613206E8 ; 4.505580509579287E9 ; 0.0
8 ; 3.907177571517588E7 ; 6.907200571135541E8 ; 3.087694387834236E8 ; 5.182430515104046E9 ; 0.0
9 ; 3.935205356239724E7 ; 7.064491409660058E8 ; 3.4784121449859947E8 ; 5.8731505722176E9 ; 0.0
10 ; 3.978488760711689E7 ; 7.240377845469629E8 ; 3.871932680609967E8 ; 6.579599713183605E9 ; 0.0
11 ; 4.047158494487467E7 ; 7.434861780030428E8 ; 4.269781556681136E8 ; 7.303637497730568E9 ; 0.0
12 ; 4.158327692021924E7 ; 7.647941311876283E8 ; 4.6744974061298823E8 ; 8.047123675733611E9 ; 0.0
13 ; 4.264502448855926E7 ; 7.879611166358706E8 ; 5.090330175332075E8 ; 8.81191780692124E9 ; 0.0
14 ; 4.27679214925106E7 ; 8.129863776813283E8 ; 5.516780420217668E8 ; 9.59987892355711E9 ; 0.0
15 ; 4.2819122417040326E7 ; 8.398690556382403E8 ; 5.944459635142773E8 ; 1.0412865301238438E10 ; 0.0
16 ; 4.2869417605343156E7 ; 8.6860829577882E8 ; 6.372650859313177E8 ; 1.1252734356876678E10 ; 0.0
17 ; 4.291685789895232E7 ; 8.992033147433866E8 ; 6.801345035366608E8 ; 1.2121342652655499E10 ; 0.0
18 ; 4.2974418718578994E7 ; 9.31653431807478E8 ; 7.230513614356132E8 ; 1.3020545967398886E10 ; 0.0
19 ; 4.30218800265625E7 ; 9.659580750572245E8 ; 7.660257801541922E8 ; 1.3952199399206364E10 ; 0.0
20 ; 4.3067016934284106E7 ; 1.0021167736876229E9 ; 8.090476601807547E8 ; 1.4918157474263588E10 ; 0.0
21 ; 4.3116754146733195E7 ; 1.0401291444446034E9 ; 8.521146771150388E8 ; 1.592027424795121E10 ; 0.0
22 ; 4.3169297881392784E7 ; 1.079994876883706E9 ; 8.952314312617719E8 ; 1.6960403392395813E10 ; 0.0
23 ; 4.3216812696390875E7 ; 1.1217137197219586E9 ; 9.384007291431648E8 ; 1.804039826927952E10 ; 0.0
24 ; 4.3270668373145014E7 ; 1.1652854691428187E9 ; 9.816175418395556E8 ; 1.9162111989001476E10 ; 0.0
25 ; 4.331007518005781E7 ; 1.202838204575447E9 ; 1.0248882102127006E9 ; 2.0327397458144295E10 ; 0.0
26 ; 4.336539486575E7 ; 1.2028930772027643E9 ; 1.0681982853927584E9 ; 2.153023566271974E10 ; 0.0
27 ; 4.341111648549722E7 ; 1.202948590998121E9 ; 1.1115636802585084E9 ; 2.2733128739922504E10 ; 0.0
28 ; 4.346252269385494E7 ; 1.2030046533911915E9 ; 1.1549747967440057E9 ; 2.3936077330920624E10 ; 0.0
29 ; 4.35121057241624E7 ; 1.2030611872423115E9 ; 1.1984373194378607E9 ; 2.5139081984311813E10 ; 0.0
30 ; 4.355558346842152E7 ; 1.2031181278642952E9 ; 1.241949425162023E9 ; 2.6342143171554123E10 ; 0.0
31 ; 4.359867857243258E7 ; 1.2031754206730099E9 ; 1.2855050086304445E9 ; 2.754526129941842E10 ; 0.0
32 ; 4.3645240161307424E7 ; 1.2032330193269343E9 ; 1.329103687202877E9 ; 2.874843672009143E10 ; 0.0
33 ; 4.368897556631407E7 ; 1.203290884247241E9 ; 1.3727489273641844E9 ; 2.9951669739418365E10 ; 0.0
34 ; 4.37355562871541E7 ; 1.203348981434709E9 ; 1.4164379029304984E9 ; 3.1154960623665607E10 ; 0.0
35 ; 4.377606473506105E7 ; 1.203407281518968E9 ; 1.4601734592176526E9 ; 3.2358309605100315E10 ; 0.0
36 ; 4.3809714442398205E7 ; 1.2034657589903693E9 ; 1.5039495239527135E9 ; 3.356171688661928E10 ; 0.0
37 ; 4.385341790689201E7 ; 1.2035243915760722E9 ; 1.5477592383951118E9 ; 3.476518264560965E10 ; 0.0
38 ; 4.3892638822714165E7 ; 1.2035831597305787E9 ; 1.5916126563020039E9 ; 3.596870703718572E10 ; 0.0
39 ; 4.391900859390951E7 ; 1.2036420462175548E9 ; 1.635505295124718E9 ; 3.71722901969163E10 ; 0.0
40 ; 4.395466473025785E7 ; 1.2037010357648356E9 ; 1.6794243037186275E9 ; 3.837593224313385E10 ; 0.0
41 ; 4.398476630026539E7 ; 1.2037601147784007E9 ; 1.7233789684488852E9 ; 3.957963327889869E10 ; 0.0
42 ; 4.4023280685442716E7 ; 1.2038192711041074E9 ; 1.7673637347491505E9 ; 4.078339339367709E10 ; 0.0
43 ; 4.404419593471341E7 ; 1.2038784938282938E9 ; 1.8113870154345932E9 ; 4.1987212664781204E10 ; 0.0
44 ; 4.407142097695064E7 ; 1.2039377731101627E9 ; 1.8554312113693066E9 ; 4.31910911586095E10 ; 0.0
45 ; 4.4088296440781124E7 ; 1.203997100040288E9 ; 1.8995026323462572E9 ; 4.439502893171966E10 ; 0.0
46 ; 4.411430942023271E7 ; 1.204056466520669E9 ; 1.9435909287870383E9 ; 4.559902603175995E10 ; 0.0
47 ; 4.4133782516748995E7 ; 1.2041158651626585E9 ; 1.987705238207271E9 ; 4.680308249828062E10 ; 0.0
48 ; 4.414908547694817E7 ; 1.2041752891997666E9 ; 2.03183902072402E9 ; 4.8007198363443275E10 ; 0.0
49 ; 4.41704228882736E7 ; 1.2042347324129002E9 ; 2.0759881062009683E9 ; 4.921137365264304E10 ; 0.0
50 ; 4.417866398787002E7 ; 1.204294189066041E9 ; 2.120158529089242E9 ; 5.041560838505595E10 ; 0.0
51 ; 4.419558887729287E7 ; 1.2043536538507173E9 ; 2.164337193077112E9 ; 5.161990257412199E10 ; 0.0
52 ; 4.42113018149771E7 ; 1.2044131218379128E9 ; 2.208532781954405E9 ; 5.28242562279727E10 ; 0.0
53 ; 4.421935279203063E7 ; 1.2044725884362867E9 ; 2.252744083769382E9 ; 5.4028669349810616E10 ; 0.0
54 ; 4.422908809499507E7 ; 1.2045320493557663E9 ; 2.296963436561413E9 ; 5.52331419382469E10 ; 0.0
55 ; 4.423935361582998E7 ; 1.204591500575733E9 ; 2.341192524656408E9 ; 5.643767398760267E10 ; 0.0
56 ; 4.424874788704165E7 ; 1.204650938317143E9 ; 2.385431878272238E9 ; 5.76422654881784E10 ; 0.0
57 ; 4.426096316608201E7 ; 1.2047103590180311E9 ; 2.4296806261592793E9 ; 5.8846916426495544E10 ; 0.0
58 ; 4.4273749176746264E7 ; 1.2047697593119342E9 ; 2.4739415893253613E9 ; 6.005162678551357E10 ; 0.0
59 ; 4.4277023640537806E7 ; 1.2048291360088363E9 ; 2.5182153385021076E9 ; 6.125639654482551E10 ; 0.0
60 ; 4.42894159980582E7 ; 1.2048884860783012E9 ; 2.5624923621426454E9 ; 6.246122568083434E10 ; 0.0
61 ; 4.429891336303592E7 ; 1.204947806634511E9 ; 2.6067817781407037E9 ; 6.366611416691264E10 ; 0.0
62 ; 4.430265623863673E7 ; 1.2050070949229596E9 ; 2.6510806915037394E9 ; 6.487106197354716E10 ; 0.0
63 ; 4.430880783789703E7 ; 1.205066348308597E9 ; 2.6953833477423763E9 ; 6.6076069068470116E10 ; 0.0
64 ; 4.431963127593414E7 ; 1.205125564265245E9 ; 2.739692155580273E9 ; 6.728113541677871E10 ; 0.0
65 ; 4.432949334421668E7 ; 1.2051847403661258E9 ; 2.7840117868562074E9 ; 6.848626098104395E10 ; 0.0
66 ; 4.43293486493887E7 ; 1.205243874275374E9 ; 2.828341280200424E9 ; 6.969144572141008E10 ; 0.0
67 ; 4.4333390009675175E7 ; 1.2053029637404118E9 ; 2.872670628849813E9 ; 7.089668959568546E10 ; 0.0
68 ; 4.4340253038961545E7 ; 1.2053620065850916E9 ; 2.917004018859488E9 ; 7.210199255942587E10 ; 0.0
69 ; 4.4345243789437994E7 ; 1.2054210007035146E9 ; 2.9613442718984494E9 ; 7.330735456601097E10 ; 0.0
70 ; 4.434863064433007E7 ; 1.2054799440544512E9 ; 3.005689515687887E9 ; 7.45127755667145E10 ; 0.0
71 ; 4.435972879890527E7 ; 1.2055388346562977E9 ; 3.050038146332217E9 ; 7.571825551076895E10 ; 0.0
72 ; 4.435317910931149E7 ; 1.2055976705825057E9 ; 3.0943978751311226E9 ; 7.692379434542525E10 ; 0.0
73 ; 4.435811735888563E7 ; 1.20565644995744E9 ; 3.138751054240434E9 ; 7.812939201600775E10 ; 0.0
74 ; 4.4360351071399614E7 ; 1.2057151709526143E9 ; 3.18310917159932E9 ; 7.93350484659652E10 ; 0.0
75 ; 4.436207466588372E7 ; 1.20577383178327E9 ; 3.2274695226707196E9 ; 8.054076363691782E10 ; 0.0
76 ; 4.436809070749477E7 ; 1.2058324307052555E9 ; 3.271831597336603E9 ; 8.174653746870108E10 ; 0.0
77 ; 4.43729440422426E7 ; 1.205890966012185E9 ; 3.316199688044098E9 ; 8.295236989940634E10 ; 0.0
78 ; 4.435602206329425E7 ; 1.205949436032841E9 ; 3.3605726320863404E9 ; 8.415826086541853E10 ; 0.0
79 ; 4.434208383065485E7 ; 1.2060078391287992E9 ; 3.404928654149635E9 ; 8.536421030145137E10 ; 0.0
80 ; 4.432838108616639E7 ; 1.206066173692256E9 ; 3.4492707379802895E9 ; 8.657021814058017E10 ; 0.0
81 ; 4.431769484067885E7 ; 1.206124438144036E9 ; 3.493599119066456E9 ; 8.777628431427243E10 ; 0.0
82 ; 4.430313361011941E7 ; 1.206182630931763E9 ; 3.5379168139071345E9 ; 8.898240875241647E10 ; 0.0
83 ; 4.428887993289841E7 ; 1.206240750528183E9 ; 3.582219947517254E9 ; 9.018859138334824E10 ; 0.0
84 ; 4.427612058470611E7 ; 1.2062987954296188E9 ; 3.6265088274501524E9 ; 9.139483213387642E10 ; 0.0
85 ; 4.425678862216792E7 ; 1.2063567641545486E9 ; 3.6707849480348587E9 ; 9.260113092930603E10 ; 0.0
86 ; 4.423998948291688E7 ; 1.2064146552422974E9 ; 3.715041736657027E9 ; 9.380748769346057E10 ; 0.0
87 ; 4.4229194274668686E7 ; 1.2064724672518287E9 ; 3.7592817261399436E9 ; 9.501390234870287E10 ; 0.0
88 ; 4.4213379824034646E7 ; 1.20653019876063E9 ; 3.8035109204146123E9 ; 9.62203748159547E10 ; 0.0
89 ; 4.419430820454386E7 ; 1.2065878483636813E9 ; 3.847724300238647E9 ; 9.742690501471533E10 ; 0.0
90 ; 4.417632661805143E7 ; 1.206645414672504E9 ; 3.891918608443191E9 ; 9.863349286307901E10 ; 0.0
91 ; 4.4155975323948264E7 ; 1.2067028963142788E9 ; 3.9360949350612426E9 ; 9.984013827775151E10 ; 0.0
92 ; 4.4146275396829076E7 ; 1.2067602919310274E9 ; 3.980250910385191E9 ; 1.010468411740658E11 ; 0.0
93 ; 4.412505725440413E7 ; 1.2068176001788568E9 ; 4.02439718578202E9 ; 1.0225360146599683E11 ; 0.0
94 ; 4.4106650067082085E7 ; 1.2068748197272568E9 ; 4.068522243036424E9 ; 1.0346041906617569E11 ; 0.0
95 ; 4.4086219223191306E7 ; 1.2069319492584457E9 ; 4.112628893103506E9 ; 1.0466729388590295E11 ; 0.0
96 ; 4.4065103062766545E7 ; 1.2069889874667664E9 ; 4.1567151123266973E9 ; 1.058742258351614E11 ; 0.0
97 ; 4.403993612238855E7 ; 1.2070459330581222E9 ; 4.200780215389464E9 ; 1.0708121482262817E11 ; 0.0
98 ; 4.402476921916535E7 ; 1.2071027847494516E9 ; 4.2448201515118523E9 ; 1.082882607556863E11 ; 0.0
99 ; 4.400147122727064E7 ; 1.2071595412682424E9 ; 4.2888449207310176E9 ; 1.0949536354043575E11 ; 0.0
100 ; 4.398079647279728E7 ; 1.2072162013520744E9 ; 4.332846391958288E9 ; 1.10702523081704E11 ; 0.0
101 ; 4.395799396219837E7 ; 1.2072727637481976E9 ; 4.376827188431086E9 ; 1.1190973928305608E11 ; 0.0
102 ; 4.393354897951128E7 ; 1.2073292272131371E9 ; 4.420785182393284E9 ; 1.1311701204680428E11 ; 0.0
103 ; 4.391796897315313E7 ; 1.2073855905123234E9 ; 4.464718731372795E9 ; 1.1432434127401741E11 ; 0.0
104 ; 4.38841059136938E7 ; 1.2074418524197474E9 ; 4.508636700345948E9 ; 1.1553172686452974E11 ; 0.0
105 ; 4.3868651103542686E7 ; 1.2074980117176423E9 ; 4.552520806259642E9 ; 1.167391687169495E11 ; 0.0
106 ; 4.383782998087914E7 ; 1.2075540671961792E9 ; 4.596389457363184E9 ; 1.1794666672866713E11 ; 0.0
107 ; 4.381930587635765E7 ; 1.2076100176531897E9 ; 4.640227287344063E9 ; 1.1915422079586331E11 ; 0.0
108 ; 4.379450350511005E7 ; 1.2076658618939004E9 ; 4.684046593220421E9 ; 1.203618308135165E11 ; 0.0
109 ; 4.376851867627962E7 ; 1.207721598730689E9 ; 4.727841096725531E9 ; 1.215694966754104E11 ; 0.0
110 ; 4.37356602601332E7 ; 1.2077772269828548E9 ; 4.771609615401811E9 ; 1.2277721827414108E11 ; 0.0
111 ; 4.371479986592143E7 ; 1.2078327454764013E9 ; 4.815345275661943E9 ; 1.2398499550112393E11 ; 0.0
112 ; 4.369373519975835E7 ; 1.2078881530438366E9 ; 4.859060075527864E9 ; 1.2519282824660033E11 ; 0.0
113 ; 4.365927120795207E7 ; 1.2079434485239832E9 ; 4.902753810727623E9 ; 1.2640071639964417E11 ; 0.0
114 ; 4.363603543286462E7 ; 1.2079986307618027E9 ; 4.9464130819355755E9 ; 1.2760865984816815E11 ; 0.0
115 ; 4.360113295556767E7 ; 1.208053698608228E9 ; 4.99004911736844E9 ; 1.2881665847892996E11 ; 0.0
116 ; 4.357253011134207E7 ; 1.2081086509200087E9 ; 5.033650250324007E9 ; 1.300247121775382E11 ; 0.0
117 ; 4.355017536019091E7 ; 1.2081634865595665E9 ; 5.077222780435349E9 ; 1.312328208284582E11 ; 0.0
118 ; 4.352048900306137E7 ; 1.208218204394856E9 ; 5.120772955795541E9 ; 1.3244098431501778E11 ; 0.0
119 ; 4.3489210315324746E7 ; 1.2082728032992394E9 ; 5.164293444798602E9 ; 1.3364920251941263E11 ; 0.0
120 ; 4.345216760896584E7 ; 1.2083272821513638E9 ; 5.207782655113927E9 ; 1.3485747532271187E11 ; 0.0
121 ; 4.3426060280064635E7 ; 1.2083816398350506E9 ; 5.251234822722893E9 ; 1.3606580260486324E11 ; 0.0
122 ; 4.339591029774018E7 ; 1.208435875239187E9 ; 5.294660883002957E9 ; 1.3727418424469829E11 ; 0.0
123 ; 4.336205157558393E7 ; 1.20848998725763E9 ; 5.338056793300697E9 ; 1.3848262011993747E11 ; 0.0
124 ; 4.332763756265135E7 ; 1.2085439747891123E9 ; 5.381418844876281E9 ; 1.396911101071951E11 ; 0.0
125 ; 4.3300920085582465E7 ; 1.2085978367371528E9 ; 5.424746482438932E9 ; 1.4089965408198422E11 ; 0.0
126 ; 4.326439374368749E7 ; 1.2086515720099785E9 ; 5.468047402524515E9 ; 1.4210825191872137E11 ; 0.0
127 ; 4.322875685808204E7 ; 1.2087051795204449E9 ; 5.511311796268203E9 ; 1.4331690349073135E11 ; 0.0
128 ; 4.3199188102273524E7 ; 1.2087586581859658E9 ; 5.554540553126285E9 ; 1.445256086702518E11 ; 0.0
129 ; 4.316023038970265E7 ; 1.2088120069284449E9 ; 5.597739741228559E9 ; 1.4573436732843777E11 ; 0.0
130 ; 4.312415431728489E7 ; 1.208865224674214E9 ; 5.640899971618261E9 ; 1.469431793353662E11 ; 0.0
131 ; 4.3077158240668334E7 ; 1.208918310353972E9 ; 5.684024125935546E9 ; 1.4815204456004044E11 ; 0.0
132 ; 4.302541243230415E7 ; 1.2089712629027326E9 ; 5.727101284176214E9 ; 1.493609628703944E11 ; 0.0
133 ; 4.297734394438609E7 ; 1.209024081259769E9 ; 5.770126696608519E9 ; 1.5056993413329715E11 ; 0.0
134 ; 4.2925126275738716E7 ; 1.209076764368568E9 ; 5.813104040552905E9 ; 1.5177895821455692E11 ; 0.0
135 ; 4.287375794843679E7 ; 1.2091293111767843E9 ; 5.856029166828644E9 ; 1.5298803497892548E11 ; 0.0
136 ; 4.282408627728546E7 ; 1.2091817206361976E9 ; 5.898902924777081E9 ; 1.5419716429010226E11 ; 0.0
137 ; 4.277919545252551E7 ; 1.2092339917026744E9 ; 5.941727011054366E9 ; 1.5540634601073846E11 ; 0.0
138 ; 4.2730615713477165E7 ; 1.2092861233361306E9 ; 5.984506206506891E9 ; 1.5661558000244113E11 ; 0.0
139 ; 4.267902100921877E7 ; 1.2093381145004969E9 ; 6.027236822220368E9 ; 1.5782486612577725E11 ; 0.0
140 ; 4.262416627802195E7 ; 1.209389964163688E9 ; 6.069915843229588E9 ; 1.5903420424027774E11 ; 0.0
141 ; 4.256538171988417E7 ; 1.2094416712975726E9 ; 6.112540009507609E9 ; 1.6024359420444144E11 ; 0.0
142 ; 4.251685837537503E7 ; 1.209493234877946E9 ; 6.155105391227493E9 ; 1.61453035875739E11 ; 0.0
143 ; 4.246440469270092E7 ; 1.2095446538845048E9 ; 6.197622249602868E9 ; 1.6266252911061697E11 ; 0.0
144 ; 4.241641403522345E7 ; 1.2095959273008237E9 ; 6.240086654295569E9 ; 1.6387207376450146E11 ; 0.0
145 ; 4.237109162371525E7 ; 1.2096470541143327E9 ; 6.282503068330792E9 ; 1.6508166969180228E11 ; 0.0
146 ; 4.233188763418209E7 ; 1.2096980333162994E9 ; 6.324874159954508E9 ; 1.662913167459166E11 ; 0.0
147 ; 4.2298769223709986E7 ; 1.2097488639018083E9 ; 6.36720604758869E9 ; 1.675010147792329E11 ; 0.0
148 ; 4.2260731190051064E7 ; 1.2097995448697455E9 ; 6.4095048168124E9 ; 1.687107636431347E11 ; 0.0
149 ; 4.2219338519633524E7 ; 1.209850075222783E9 ; 6.451765548002451E9 ; 1.6992056318800446E11 ; 0.0
150 ; 4.218359732322811E7 ; 1.2099004539673653E9 ; 6.493984886522084E9 ; 1.7113041326322723E11 ; 0.0
151 ; 4.21492147805329E7 ; 1.2099506801136951E9 ; 6.536168483845312E9 ; 1.723403137171946E11 ; 0.0
152 ; 4.21078217155799E7 ; 1.210000752675724E9 ; 6.578317698625845E9 ; 1.7355026439730832E11 ; 0.0
153 ; 4.2070744218213305E7 ; 1.2100506706711414E9 ; 6.620425520341425E9 ; 1.7476026514998404E11 ; 0.0
154 ; 4.203116313536253E7 ; 1.2101004331213655E9 ; 6.662496264559638E9 ; 1.7597031582065518E11 ; 0.0
155 ; 4.1992927495899856E7 ; 1.2101500390515356E9 ; 6.704527427695001E9 ; 1.7718041625377655E11 ; 0.0
156 ; 4.195506444538993E7 ; 1.2101994874905033E9 ; 6.746520355190901E9 ; 1.783905662928281E11 ; 0.0
157 ; 4.191355011733838E7 ; 1.2102487774708304E9 ; 6.788475419636291E9 ; 1.796007657803186E11 ; 0.0
158 ; 4.187132145937179E7 ; 1.2102979080287795E9 ; 6.830388969753629E9 ; 1.8081101455778943E11 ; 0.0
159 ; 4.1839948029824406E7 ; 1.2103468782043128E9 ; 6.872260291213E9 ; 1.820213124658182E11 ; 0.0
160 ; 4.180134900957039E7 ; 1.2103956870410872E9 ; 6.914100239242825E9 ; 1.8323165934402252E11 ; 0.0
161 ; 4.175451139491844E7 ; 1.2104443335864515E9 ; 6.955901588252395E9 ; 1.844420550310636E11 ; 0.0
162 ; 4.171341180100586E7 ; 1.2104928168914456E9 ; 6.997656099647313E9 ; 1.8565249936465005E11 ; 0.0
163 ; 4.167537297426515E7 ; 1.2105411360107994E9 ; 7.039369511448319E9 ; 1.868629921815415E11 ; 0.0
164 ; 4.1633164419646814E7 ; 1.2105892900029306E9 ; 7.081044884422585E9 ; 1.880735333175523E11 ; 0.0
165 ; 4.159186188654944E7 ; 1.210637277929946E9 ; 7.122678048842232E9 ; 1.8928412260755524E11 ; 0.0
166 ; 4.1555857553728774E7 ; 1.2106850988576427E9 ; 7.164269910728781E9 ; 1.9049475988548517E11 ; 0.0
167 ; 4.150490607711993E7 ; 1.2107327518555083E9 ; 7.20582576828251E9 ; 1.917054449843428E11 ; 0.0
168 ; 4.146646269962472E7 ; 1.2107802359967237E9 ; 7.24733067435963E9 ; 1.929161777361983E11 ; 0.0
169 ; 4.1424904819070905E7 ; 1.2108275503581645E9 ; 7.288797137059255E9 ; 1.9412695797219504E11 ; 0.0
170 ; 4.138278706853382E7 ; 1.2108746940204053E9 ; 7.330222041878325E9 ; 1.953377855225532E11 ; 0.0
171 ; 4.134747813874612E7 ; 1.2109216660677214E9 ; 7.371604828946859E9 ; 1.965486602165736E11 ; 0.0
172 ; 4.1300403823557936E7 ; 1.2109684655880933E9 ; 7.412952307085606E9 ; 1.9775958188264133E11 ; 0.0
173 ; 4.126108455895005E7 ; 1.2110150916732118E9 ; 7.454252710909163E9 ; 1.9897055034822943E11 ; 0.0
174 ; 4.12347415676721E7 ; 1.2110615434184816E9 ; 7.495513795468114E9 ; 2.0018156543990265E11 ; 0.0
175 ; 4.121011593413212E7 ; 1.2111078199230258E9 ; 7.536748537035786E9 ; 2.0139262698332114E11 ; 0.0
176 ; 4.118751248761065E7 ; 1.211153920289693E9 ; 7.577958652969918E9 ; 2.0260373480324417E11 ; 0.0
177 ; 4.1152680205913804E7 ; 1.2111998436250618E9 ; 7.619146165457529E9 ; 2.0381488872353387E11 ; 0.0
178 ; 4.113309152841706E7 ; 1.2112455890394466E9 ; 7.660298845663443E9 ; 2.0502608856715894E11 ; 0.0
179 ; 4.110431068261934E7 ; 1.2112911556469047E9 ; 7.701431937191859E9 ; 2.062373341561984E11 ; 0.0
180 ; 4.108875960542227E7 ; 1.2113365425652435E9 ; 7.742536247874478E9 ; 2.074486253118453E11 ; 0.0
181 ; 4.105286004911125E7 ; 1.2113817489160256E9 ; 7.7836250074799E9 ; 2.0865996185441055E11 ; 0.0
182 ; 4.10360540465301E7 ; 1.2114267738245776E9 ; 7.824677867529012E9 ; 2.0987134360332657E11 ; 0.0
183 ; 4.1011731062346265E7 ; 1.2114716164199972E9 ; 7.8657139215755415E9 ; 2.1108277037715115E11 ; 0.0
184 ; 4.098287009388408E7 ; 1.2115162758351607E9 ; 7.906725652637888E9 ; 2.1229424199357114E11 ; 0.0
185 ; 4.0953518497076385E7 ; 1.2115607512067306E9 ; 7.947708522731772E9 ; 2.135057582694063E11 ; 0.0
186 ; 4.093459831649788E7 ; 1.2116050416751652E9 ; 7.988662041228848E9 ; 2.1471731902061304E11 ; 0.0
187 ; 4.0912304672565505E7 ; 1.211649146384725E9 ; 8.029596639545346E9 ; 2.159289240622882E11 ; 0.0
188 ; 4.088483019380522E7 ; 1.2116930644834828E9 ; 8.070508944217912E9 ; 2.1714057320867294E11 ; 0.0
189 ; 4.086148577765502E7 ; 1.211736795123331E9 ; 8.111393774411716E9 ; 2.1835226627315643E11 ; 0.0
190 ; 4.083676834663775E7 ; 1.211780337459993E9 ; 8.152255260189371E9 ; 2.1956400306827975E11 ; 0.0
191 ; 4.080661741270238E7 ; 1.211823690653029E9 ; 8.193092028536009E9 ; 2.2077578340573975E11 ; 0.0
192 ; 4.077963336747944E7 ; 1.2118668538658478E9 ; 8.233898645948711E9 ; 2.2198760709639276E11 ; 0.0
193 ; 4.0752068530786544E7 ; 1.211909826265715E9 ; 8.274678279316191E9 ; 2.231994739502586E11 ; 0.0
194 ; 4.072521785645841E7 ; 1.2119526070237625E9 ; 8.315430347846977E9 ; 2.2441138377652432E11 ; 0.0
195 ; 4.070352581572755E7 ; 1.211995195314999E9 ; 8.356155565703436E9 ; 2.256233363835481E11 ; 0.0
196 ; 4.0678396428507E7 ; 1.2120375903183198E9 ; 8.396859091519163E9 ; 2.268353315788631E11 ; 0.0
197 ; 4.064977412955025E7 ; 1.212079791216514E9 ; 8.43753748794767E9 ; 2.2804736916918143E11 ; 0.0
