CSV File for the Network on Day 91
1 - Minute m 
2 - Power Consumed at minute m 
3 - Power Produced at minute m 
4 - Energy Consumed since the beginning of the day 
5 - Energy Produced since the beginning of the day 
6 - Energy Lost since the beginning of the day 
 
0 ; 3.8655138688131616E7 ; 6.350761720627794E8 ; 0.0 ; 0.0 ; 0.0
1 ; 3.8700026156215325E7 ; 6.359869982843618E8 ; 3.8655138688131616E7 ; 6.350761720627794E8 ; 0.0
2 ; 3.874002383933477E7 ; 6.387512153215616E8 ; 7.735516484434694E7 ; 1.2710631703471413E9 ; 0.0
3 ; 3.879557180653724E7 ; 6.433688396044234E8 ; 1.1609518868368171E8 ; 1.9098143856687028E9 ; 0.0
4 ; 3.884707250292269E7 ; 6.498398858588803E8 ; 1.5489076049021894E8 ; 2.553183225273126E9 ; 0.0
5 ; 3.8916257636662036E7 ; 6.581643670245988E8 ; 1.9373783299314162E8 ; 3.2030231111320066E9 ; 0.0
6 ; 3.900800228924467E7 ; 6.683422941813968E8 ; 2.3265409062980366E8 ; 3.8611874781566057E9 ; 0.0
7 ; 3.913620348879831E7 ; 6.803736764851983E8 ; 2.716620929190483E8 ; 4.529529772338002E9 ; 0.0
8 ; 3.932149137847791E7 ; 6.942585211143832E8 ; 3.107982964078466E8 ; 5.2099034488232E9 ; 0.0
9 ; 3.96038134258126E7 ; 7.099968332272627E8 ; 3.5011978778632456E8 ; 5.904161969937584E9 ; 0.0
10 ; 4.004128286776868E7 ; 7.275886159312701E8 ; 3.8972360121213716E8 ; 6.614158803164846E9 ; 0.0
11 ; 4.073819678804187E7 ; 7.470338702642999E8 ; 4.2976488407990587E8 ; 7.341747419096117E9 ; 0.0
12 ; 4.183947842322646E7 ; 7.683325951884574E8 ; 4.7050308086794776E8 ; 8.088781289360416E9 ; 0.0
13 ; 4.290211911691809E7 ; 7.914847875963094E8 ; 5.1234255929117423E8 ; 8.857113884548874E9 ; 0.0
14 ; 4.3032347371920645E7 ; 8.16490442329545E8 ; 5.552446784080923E8 ; 9.648598672145184E9 ; 0.0
15 ; 4.3075508213844344E7 ; 8.433495522097838E8 ; 5.982770257800128E8 ; 1.0465089114474728E10 ; 0.0
16 ; 4.3128575839768894E7 ; 8.720621080811026E8 ; 6.413525339938571E8 ; 1.1308438666684511E10 ; 0.0
17 ; 4.317922358477712E7 ; 9.026280988636826E8 ; 6.84481109833626E8 ; 1.2180500774765614E10 ; 0.0
18 ; 4.32285615236948E7 ; 9.350475116178579E8 ; 7.276603334184031E8 ; 1.3083128873629295E10 ; 0.0
19 ; 4.328162626578879E7 ; 9.693203316176951E8 ; 7.708888949420979E8 ; 1.4018176385247154E10 ; 0.0
20 ; 4.3331047035527244E7 ; 1.0054465424331496E9 ; 8.141705212078867E8 ; 1.498749671686485E10 ; 0.0
21 ; 4.338402748939942E7 ; 1.0434261260197511E9 ; 8.575015682434139E8 ; 1.5992943259297998E10 ; 0.0
22 ; 4.344101847918824E7 ; 1.083259062814712E9 ; 9.008855957328134E8 ; 1.7036369385317749E10 ; 0.0
23 ; 4.348383476360297E7 ; 1.1249453318383243E9 ; 9.443266142120016E8 ; 1.811962844813246E10 ; 0.0
24 ; 4.353610643668771E7 ; 1.1684849107994761E9 ; 9.878104489756045E8 ; 1.9244573779970787E10 ; 0.0
25 ; 4.3580103942891136E7 ; 1.2060060215932596E9 ; 1.0313465554122922E9 ; 2.0413058690770264E10 ; 0.0
26 ; 4.3639590903036274E7 ; 1.20602992663271E9 ; 1.0749266593551834E9 ; 2.161906471236352E10 ; 0.0
27 ; 4.368592506037544E7 ; 1.2060552161093802E9 ; 1.1185662502582197E9 ; 2.282509463899623E10 ; 0.0
28 ; 4.37373373070171E7 ; 1.206081863584908E9 ; 1.1622521753185952E9 ; 2.403114985510561E10 ; 0.0
29 ; 4.378492494833375E7 ; 1.2061098418602588E9 ; 1.2059895126256123E9 ; 2.5237231718690517E10 ; 0.0
30 ; 4.3831291956878945E7 ; 1.2061391230834823E9 ; 1.249774437573946E9 ; 2.6443341560550777E10 ; 0.0
31 ; 4.387948575077331E7 ; 1.2061696788546906E9 ; 1.293605729530825E9 ; 2.764948068363426E10 ; 0.0
32 ; 4.3922174209465295E7 ; 1.2062014803275878E9 ; 1.337485215281598E9 ; 2.885565036248895E10 ; 0.0
33 ; 4.3962566236491054E7 ; 1.2062344983069794E9 ; 1.3814073894910634E9 ; 3.0061851842816536E10 ; 0.0
34 ; 4.40186484611909E7 ; 1.206268703341789E9 ; 1.4253699557275543E9 ; 3.1268086341123516E10 ; 0.0
35 ; 4.405863248403237E7 ; 1.2063040658131974E9 ; 1.4693886041887453E9 ; 3.2474355044465305E10 ; 0.0
36 ; 4.410363799642365E7 ; 1.2063405560176172E9 ; 1.5134472366727777E9 ; 3.3680659110278503E10 ; 0.0
37 ; 4.414140369365071E7 ; 1.2063781442442994E9 ; 1.5575508746692014E9 ; 3.488699966629612E10 ; 0.0
38 ; 4.41745239436482E7 ; 1.2064168008474379E9 ; 1.601692278362852E9 ; 3.609337781054042E10 ; 0.0
39 ; 4.421196926686665E7 ; 1.2064564963127291E9 ; 1.6458668023065002E9 ; 3.7299794611387856E10 ; 0.0
40 ; 4.4243912446435004E7 ; 1.2064972013183856E9 ; 1.6900787715733669E9 ; 3.8506251107700584E10 ; 0.0
41 ; 4.428293111085775E7 ; 1.2065388867906766E9 ; 1.7343226840198019E9 ; 3.971274830901897E10 ; 0.0
42 ; 4.431828385777019E7 ; 1.2065815239541097E9 ; 1.7786056151306596E9 ; 4.091928719580965E10 ; 0.0
43 ; 4.433783361307138E7 ; 1.2066250843764057E9 ; 1.8229238989884298E9 ; 4.2125868719763756E10 ; 0.0
44 ; 4.436737674142627E7 ; 1.2066695400084636E9 ; 1.8672617326015012E9 ; 4.333249380414016E10 ; 0.0
45 ; 4.439351869357332E7 ; 1.2067148632195272E9 ; 1.9116291093429275E9 ; 4.453916334414862E10 ; 0.0
46 ; 4.441481296502469E7 ; 1.206761026827794E9 ; 1.9560226280365007E9 ; 4.574587820736815E10 ; 0.0
47 ; 4.4440597565126196E7 ; 1.2068080041267219E9 ; 2.0004374410015254E9 ; 4.6952639234195946E10 ; 0.0
48 ; 4.4456959710662134E7 ; 1.206855768907291E9 ; 2.0448780385666516E9 ; 4.815944723832267E10 ; 0.0
49 ; 4.4472552687644325E7 ; 1.2069042954764974E9 ; 2.0893349982773137E9 ; 4.936630300722996E10 ; 0.0
50 ; 4.449706510080526E7 ; 1.2069535586723418E9 ; 2.133807550964958E9 ; 5.057320730270645E10 ; 0.0
51 ; 4.450739816059064E7 ; 1.2070035338755865E9 ; 2.178304616065763E9 ; 5.178016086137879E10 ; 0.0
52 ; 4.4521839373501256E7 ; 1.2070541970185394E9 ; 2.2228120142263536E9 ; 5.298716439525438E10 ; 0.0
53 ; 4.453320229449652E7 ; 1.2071055245911288E9 ; 2.267333853599855E9 ; 5.419421859227292E10 ; 0.0
54 ; 4.4557942800728664E7 ; 1.207157493644507E9 ; 2.3118670558943515E9 ; 5.5401324116864044E10 ; 0.0
55 ; 4.4565659371289216E7 ; 1.2072100817924297E9 ; 2.3564249986950803E9 ; 5.660848161050855E10 ; 0.0
56 ; 4.457661563158408E7 ; 1.2072632672106273E9 ; 2.4009906580663695E9 ; 5.781569169230098E10 ; 0.0
57 ; 4.458981903508433E7 ; 1.2073170286343906E9 ; 2.4455672736979537E9 ; 5.9022954959511604E10 ; 0.0
58 ; 4.460471065490529E7 ; 1.2073713453545632E9 ; 2.490157092733038E9 ; 6.0230271988145996E10 ; 0.0
59 ; 4.461219994239724E7 ; 1.207426197212135E9 ; 2.5347618033879433E9 ; 6.143764333350056E10 ; 0.0
60 ; 4.462556124513625E7 ; 1.2074815645916052E9 ; 2.5793740033303404E9 ; 6.264506953071269E10 ; 0.0
61 ; 4.46314731898694E7 ; 1.2075374284132838E9 ; 2.6239995645754766E9 ; 6.38525510953043E10 ; 0.0
62 ; 4.464656844053471E7 ; 1.2075937701246722E9 ; 2.668631037765346E9 ; 6.506008852371758E10 ; 0.0
63 ; 4.465310075922743E7 ; 1.2076505716910682E9 ; 2.7132776062058806E9 ; 6.6267682293842255E10 ; 0.0
64 ; 4.466570336317269E7 ; 1.2077078155855155E9 ; 2.757930706965108E9 ; 6.7475332865533325E10 ; 0.0
65 ; 4.46747712939811E7 ; 1.207765484778212E9 ; 2.8025964103282804E9 ; 6.868304068111884E10 ; 0.0
66 ; 4.468460132403171E7 ; 1.2078235627254832E9 ; 2.8472711816222615E9 ; 6.989080616589705E10 ; 0.0
67 ; 4.468955463608568E7 ; 1.2078820333584113E9 ; 2.8919557829462934E9 ; 7.109862972862253E10 ; 0.0
68 ; 4.469849668343919E7 ; 1.2079408810712059E9 ; 2.936645337582379E9 ; 7.230651176198094E10 ; 0.0
69 ; 4.470038696161344E7 ; 1.2080000907093906E9 ; 2.981343834265818E9 ; 7.351445264305215E10 ; 0.0
70 ; 4.4713639548007E7 ; 1.2080596475578728E9 ; 3.026044221227432E9 ; 7.472245273376155E10 ; 0.0
71 ; 4.47130642525336E7 ; 1.208119537328957E9 ; 3.070757860775439E9 ; 7.593051238131943E10 ; 0.0
72 ; 4.4729665588775195E7 ; 1.2081797461503525E9 ; 3.115470925027972E9 ; 7.713863191864839E10 ; 0.0
73 ; 4.4736301938229695E7 ; 1.208240260553225E9 ; 3.1602005906167474E9 ; 7.834681166479874E10 ; 0.0
74 ; 4.473738232033365E7 ; 1.2083010674603293E9 ; 3.204936892554977E9 ; 7.955505192535196E10 ; 0.0
75 ; 4.473988960468796E7 ; 1.2083621541742594E9 ; 3.2496742748753104E9 ; 8.076335299281229E10 ; 0.0
76 ; 4.474746505085444E7 ; 1.2084235083658469E9 ; 3.2944141644799986E9 ; 8.197171514698654E10 ; 0.0
77 ; 4.475309096310598E7 ; 1.208485118062733E9 ; 3.339161629530853E9 ; 8.318013865535239E10 ; 0.0
78 ; 4.474514770958425E7 ; 1.2085469716381366E9 ; 3.383914720493959E9 ; 8.438862377341512E10 ; 0.0
79 ; 4.473766626538409E7 ; 1.208609057799835E9 ; 3.428659868203543E9 ; 8.559717074505325E10 ; 0.0
80 ; 4.4722925887380555E7 ; 1.2086713655793748E9 ; 3.4733975344689274E9 ; 8.680577980285309E10 ; 0.0
81 ; 4.4715790757146016E7 ; 1.2087338843215241E9 ; 3.518120460356308E9 ; 8.801445116843246E10 ; 0.0
82 ; 4.470160492452295E7 ; 1.2087966036739736E9 ; 3.562836251113454E9 ; 8.922318505275398E10 ; 0.0
83 ; 4.469499242175403E7 ; 1.2088595135773E9 ; 3.6075378560379767E9 ; 9.043198165642796E10 ; 0.0
84 ; 4.4682996823349595E7 ; 1.2089226042551892E9 ; 3.6522328484597306E9 ; 9.164084117000526E10 ; 0.0
85 ; 4.467057564054573E7 ; 1.208985866204928E9 ; 3.69691584528308E9 ; 9.284976377426045E10 ; 0.0
86 ; 4.465500401762204E7 ; 1.2090492901881673E9 ; 3.741586420923626E9 ; 9.405874964046538E10 ; 0.0
87 ; 4.46471488724738E7 ; 1.2091128672219512E9 ; 3.786241424941248E9 ; 9.526779893065355E10 ; 0.0
88 ; 4.463519373332694E7 ; 1.209176588570019E9 ; 3.8308885738137217E9 ; 9.64769117978755E10 ; 0.0
89 ; 4.462111503660275E7 ; 1.2092404457343726E9 ; 3.8755237675470486E9 ; 9.768608838644553E10 ; 0.0
90 ; 4.4612098746450774E7 ; 1.20930443044711E9 ; 3.9201448825836515E9 ; 9.88953288321799E10 ; 0.0
91 ; 4.459857296415071E7 ; 1.2093685346625214E9 ; 3.9647569813301024E9 ; 1.0010463326262701E11 ; 0.0
92 ; 4.4587833437129915E7 ; 1.2094327505494423E9 ; 4.0093555542942533E9 ; 1.0131400179728954E11 ; 0.0
93 ; 4.4568650448633626E7 ; 1.20949707048386E9 ; 4.0539433877313833E9 ; 1.0252343454783897E11 ; 0.0
94 ; 4.454517310995829E7 ; 1.2095614870417705E9 ; 4.098512038180017E9 ; 1.0373293161832283E11 ; 0.0
95 ; 4.453439478872292E7 ; 1.2096259929922762E9 ; 4.143057211289975E9 ; 1.049424931053646E11 ; 0.0
96 ; 4.45252564664737E7 ; 1.2096905812909238E9 ; 4.187591606078698E9 ; 1.0615211909835687E11 ; 0.0
97 ; 4.450274436616068E7 ; 1.2097552450732715E9 ; 4.2321168625451717E9 ; 1.073618096796478E11 ; 0.0
98 ; 4.4486302906791404E7 ; 1.2098199776486857E9 ; 4.2766196069113326E9 ; 1.0857156492472107E11 ; 0.0
99 ; 4.446569188147523E7 ; 1.2098847724943538E9 ; 4.321105909818124E9 ; 1.0978138490236975E11 ; 0.0
100 ; 4.44508353467603E7 ; 1.2099496232495134E9 ; 4.365571601699599E9 ; 1.109912696748641E11 ; 0.0
101 ; 4.4436419006122656E7 ; 1.2100145237098866E9 ; 4.41002243704636E9 ; 1.1220121929811362E11 ; 0.0
102 ; 4.4414089560132295E7 ; 1.2100794678223176E9 ; 4.454458856052483E9 ; 1.134112338218235E11 ; 0.0
103 ; 4.439523913338207E7 ; 1.2101444496796033E9 ; 4.498872945612615E9 ; 1.1462131328964581E11 ; 0.0
104 ; 4.437746510724356E7 ; 1.210209463515514E9 ; 4.543268184745996E9 ; 1.1583145773932541E11 ; 0.0
105 ; 4.4359804804211214E7 ; 1.2102745036999946E9 ; 4.58764564985324E9 ; 1.1704166720284093E11 ; 0.0
106 ; 4.43454948409224E7 ; 1.210339564734545E9 ; 4.632005454657452E9 ; 1.1825194170654092E11 ; 0.0
107 ; 4.432176552424395E7 ; 1.2104046412477686E9 ; 4.676350949498374E9 ; 1.1946228127127547E11 ; 0.0
108 ; 4.429298826257137E7 ; 1.2104697279910865E9 ; 4.720672715022618E9 ; 1.2067268591252324E11 ; 0.0
109 ; 4.427622384780863E7 ; 1.21053481983461E9 ; 4.76496570328519E9 ; 1.2188315564051433E11 ; 0.0
110 ; 4.4259958861336105E7 ; 1.2105999117631674E9 ; 4.809241927132998E9 ; 1.2309369046034894E11 ; 0.0
111 ; 4.423821360040781E7 ; 1.2106649988724775E9 ; 4.853501885994334E9 ; 1.243042903721121E11 ; 0.0
112 ; 4.4212737529527426E7 ; 1.2107300763654666E9 ; 4.897740099594742E9 ; 1.2551495537098459E11 ; 0.0
113 ; 4.419465229071121E7 ; 1.2107951395487218E9 ; 4.9419528371242695E9 ; 1.2672568544735005E11 ; 0.0
114 ; 4.416755050341319E7 ; 1.2108601838290772E9 ; 4.986147489414981E9 ; 1.2793648058689877E11 ; 0.0
115 ; 4.414642749493499E7 ; 1.210925204710327E9 ; 5.030315039918394E9 ; 1.2914734077072784E11 ; 0.0
116 ; 4.411910061538786E7 ; 1.210990197790062E9 ; 5.074461467413329E9 ; 1.3035826597543817E11 ; 0.0
117 ; 4.409951120364867E7 ; 1.211055158756624E9 ; 5.118580568028717E9 ; 1.3156925617322824E11 ; 0.0
118 ; 4.4068251313864894E7 ; 1.2111200833861735E9 ; 5.162680079232366E9 ; 1.3278031133198486E11 ; 0.0
119 ; 4.4047124731534645E7 ; 1.2111849675398653E9 ; 5.20674833054623E9 ; 1.3399143141537103E11 ; 0.0
120 ; 4.400890656622093E7 ; 1.2112498071611333E9 ; 5.250795455277765E9 ; 1.352026163829109E11 ; 0.0
121 ; 4.399766027180314E7 ; 1.2113145982730713E9 ; 5.2948043618439865E9 ; 1.3641386619007204E11 ; 0.0
122 ; 4.396731681905662E7 ; 1.2113793369759154E9 ; 5.338802022115789E9 ; 1.376251807883451E11 ; 0.0
123 ; 4.3944780049413204E7 ; 1.2114440194446182E9 ; 5.382769338934846E9 ; 1.38836560125321E11 ; 0.0
124 ; 4.391304035974456E7 ; 1.2115086419265125E9 ; 5.426714118984259E9 ; 1.4004800414476562E11 ; 0.0
125 ; 4.389120230020193E7 ; 1.2115732007390614E9 ; 5.470627159344004E9 ; 1.4125951278669214E11 ; 0.0
126 ; 4.3859546197005644E7 ; 1.2116376922676933E9 ; 5.514518361644206E9 ; 1.424710859874312E11 ; 0.0
127 ; 4.383349505902119E7 ; 1.2117021129637165E9 ; 5.558377907841211E9 ; 1.436827236796989E11 ; 0.0
128 ; 4.380331670045519E7 ; 1.211766459342307E9 ; 5.602211402900232E9 ; 1.4489442579266263E11 ; 0.0
129 ; 4.377853457011418E7 ; 1.2118307279805763E9 ; 5.646014719600687E9 ; 1.4610619225200494E11 ; 0.0
130 ; 4.374502886947999E7 ; 1.2118949155157056E9 ; 5.689793254170801E9 ; 1.4731802297998553E11 ; 0.0
131 ; 4.369972436889367E7 ; 1.2119590186431491E9 ; 5.733538283040281E9 ; 1.4852991789550125E11 ; 0.0
132 ; 4.3653869161491044E7 ; 1.2120230341149056E9 ; 5.777238007409175E9 ; 1.497418769141444E11 ; 0.0
133 ; 4.361475075508638E7 ; 1.2120869587378488E9 ; 5.820891876570666E9 ; 1.509538999482593E11 ; 0.0
134 ; 4.357348925402552E7 ; 1.212150789372123E9 ; 5.864506627325752E9 ; 1.5216598690699716E11 ; 0.0
135 ; 4.3526217098260045E7 ; 1.212214522929592E9 ; 5.908080116579778E9 ; 1.533781376963693E11 ; 0.0
136 ; 4.347517777773745E7 ; 1.2122781563723497E9 ; 5.951606333678038E9 ; 1.545903522192989E11 ; 0.0
137 ; 4.3435681894540295E7 ; 1.2123416867112799E9 ; 5.995081511455775E9 ; 1.5580263037567123E11 ; 0.0
138 ; 4.3392108665155396E7 ; 1.2124051110046704E9 ; 6.038517193350315E9 ; 1.570149720623825E11 ; 0.0
139 ; 4.3337256500397384E7 ; 1.2124684263568752E9 ; 6.0819093020154705E9 ; 1.5822737717338718E11 ; 0.0
140 ; 4.3294324227167726E7 ; 1.2125316299170272E9 ; 6.125246558515868E9 ; 1.5943984559974405E11 ; 0.0
141 ; 4.325039927957175E7 ; 1.2125947188777947E9 ; 6.168540882743036E9 ; 1.6065237722966107E11 ; 0.0
142 ; 4.319877215926464E7 ; 1.2126576904741821E9 ; 6.211791282022608E9 ; 1.6186497194853888E11 ; 0.0
143 ; 4.315409081512013E7 ; 1.2127205419823756E9 ; 6.254990054181872E9 ; 1.6307762963901306E11 ; 0.0
144 ; 4.311368882023546E7 ; 1.2127832707186265E9 ; 6.298144144996992E9 ; 1.6429035018099542E11 ; 0.0
145 ; 4.307191629492E7 ; 1.212845874038177E9 ; 6.341257833817227E9 ; 1.6550313345171405E11 ; 0.0
146 ; 4.304948497750819E7 ; 1.2129083493342223E9 ; 6.384329750112147E9 ; 1.6671597932575223E11 ; 0.0
147 ; 4.301059455601007E7 ; 1.2129706940369089E9 ; 6.427379235089656E9 ; 1.6792888767508646E11 ; 0.0
148 ; 4.298360040294224E7 ; 1.2130329056123683E9 ; 6.470389829645666E9 ; 1.6914185836912335E11 ; 0.0
149 ; 4.294623530050205E7 ; 1.2130949815617862E9 ; 6.513373430048609E9 ; 1.7035489127473572E11 ; 0.0
150 ; 4.292452449504015E7 ; 1.2131569194205012E9 ; 6.556319665349111E9 ; 1.7156798625629752E11 ; 0.0
151 ; 4.2891822959429964E7 ; 1.2132187167571368E9 ; 6.599244189844151E9 ; 1.7278114317571802E11 ; 0.0
152 ; 4.2861432130731195E7 ; 1.2132803711727624E9 ; 6.64213601280358E9 ; 1.7399436189247516E11 ; 0.0
153 ; 4.2821692570962116E7 ; 1.2133418803000846E9 ; 6.684997444934312E9 ; 1.7520764226364792E11 ; 0.0
154 ; 4.278753392064376E7 ; 1.213403241802665E9 ; 6.727819137505274E9 ; 1.76420984143948E11 ; 0.0
155 ; 4.276204840611362E7 ; 1.213464453374165E9 ; 6.770606671425918E9 ; 1.7763438738575067E11 ; 0.0
156 ; 4.2727452211977184E7 ; 1.213525512737618E9 ; 6.813368719832031E9 ; 1.7884785183912485E11 ; 0.0
157 ; 4.2693707462086E7 ; 1.213586417644724E9 ; 6.856096172044008E9 ; 1.8006137735186246E11 ; 0.0
158 ; 4.266995437463595E7 ; 1.21364716587517E9 ; 6.898789879506094E9 ; 1.8127496376950717E11 ; 0.0
159 ; 4.2629761430319905E7 ; 1.2137077552359734E9 ; 6.94145983388073E9 ; 1.8248861093538235E11 ; 0.0
160 ; 4.2600495759865E7 ; 1.2137681835608466E9 ; 6.984089595311049E9 ; 1.8370231869061832E11 ; 0.0
161 ; 4.256722224490414E7 ; 1.213828448709583E9 ; 7.026690091070914E9 ; 1.8491608687417917E11 ; 0.0
162 ; 4.253171851560501E7 ; 1.2138885485674663E9 ; 7.069257313315819E9 ; 1.8612991532288876E11 ; 0.0
163 ; 4.249460680002199E7 ; 1.2139484810446947E9 ; 7.111789031831424E9 ; 1.8734380387145624E11 ; 0.0
164 ; 4.246099952084338E7 ; 1.21400824407583E9 ; 7.154283638631446E9 ; 1.8855775235250095E11 ; 0.0
165 ; 4.242960554414961E7 ; 1.21406783561926E9 ; 7.196744638152289E9 ; 1.8977176059657678E11 ; 0.0
166 ; 4.239052115156703E7 ; 1.214127253656683E9 ; 7.239174243696439E9 ; 1.9098582843219604E11 ; 0.0
167 ; 4.2356039108669184E7 ; 1.2141864961926055E9 ; 7.281564764848006E9 ; 1.9219995568585272E11 ; 0.0
168 ; 4.232215383316449E7 ; 1.2142455612538607E9 ; 7.323920803956676E9 ; 1.9341414218204532E11 ; 0.0
169 ; 4.229209912510546E7 ; 1.2143044468891385E9 ; 7.36624295778984E9 ; 1.946283877432992E11 ; 0.0
170 ; 4.226043751980537E7 ; 1.2143631511685343E9 ; 7.408535056914946E9 ; 1.9584269219018832E11 ; 0.0
171 ; 4.2221115181638874E7 ; 1.2144216721831107E9 ; 7.450795494434751E9 ; 1.9705705534135687E11 ; 0.0
172 ; 4.217972283928049E7 ; 1.214480008044476E9 ; 7.493016609616389E9 ; 1.9827147701353998E11 ; 0.0
173 ; 4.2155562604206406E7 ; 1.2145381568843715E9 ; 7.535196332455669E9 ; 1.9948595702158444E11 ; 0.0
174 ; 4.212722131146505E7 ; 1.2145961168542788E9 ; 7.5773518950598755E9 ; 2.007004951784688E11 ; 0.0
175 ; 4.2105919187821046E7 ; 1.2146538861250334E9 ; 7.619479116371341E9 ; 2.019150912953231E11 ; 0.0
176 ; 4.2086996363577165E7 ; 1.2147114628864572E9 ; 7.661585035559162E9 ; 2.0312974518144812E11 ; 0.0
177 ; 4.206007594618836E7 ; 1.2147688453469954E9 ; 7.703672031922739E9 ; 2.0434445664433456E11 ; 0.0
178 ; 4.204606386621405E7 ; 1.214826031733373E9 ; 7.745732107868927E9 ; 2.0555922548968155E11 ; 0.0
179 ; 4.202432140691838E7 ; 1.2148830202902555E9 ; 7.787778171735141E9 ; 2.0677405152141492E11 ; 0.0
180 ; 4.199630630484487E7 ; 1.2149398092799265E9 ; 7.829802493142059E9 ; 2.0798893454170517E11 ; 0.0
181 ; 4.198191182025126E7 ; 1.2149963969819698E9 ; 7.871798799446904E9 ; 2.092038743509851E11 ; 0.0
182 ; 4.195069627120855E7 ; 1.2150527816929655E9 ; 7.913780711267156E9 ; 2.1041887074796707E11 ; 0.0
183 ; 4.1936022515943244E7 ; 1.2151089617261953E9 ; 7.955731407538364E9 ; 2.1163392352966003E11 ; 0.0
184 ; 4.191887740266159E7 ; 1.2151649354113553E9 ; 7.997667430054308E9 ; 2.1284903249138623E11 ; 0.0
185 ; 4.189286504975662E7 ; 1.2152207010942802E9 ; 8.039586307456969E9 ; 2.1406419742679758E11 ; 0.0
186 ; 4.1869868560237825E7 ; 1.215276257136674E9 ; 8.081479172506726E9 ; 2.1527941812789185E11 ; 0.0
187 ; 4.184923685551205E7 ; 1.2153316019158516E9 ; 8.123349041066964E9 ; 2.1649469438502853E11 ; 0.0
188 ; 4.183204483379215E7 ; 1.2153867338244863E9 ; 8.165198277922476E9 ; 2.177100259869444E11 ; 0.0
189 ; 4.18011531184091E7 ; 1.2154416512703657E9 ; 8.207030322756268E9 ; 2.189254127207689E11 ; 0.0
190 ; 4.178164161496865E7 ; 1.2154963526761572E9 ; 8.248831475874677E9 ; 2.2014085437203925E11 ; 0.0
191 ; 4.176750763613192E7 ; 1.215550836479178E9 ; 8.290613117489645E9 ; 2.213563507247154E11 ; 0.0
192 ; 4.174000105177456E7 ; 1.2156051011311734E9 ; 8.332380625125777E9 ; 2.2257190156119458E11 ; 0.0
193 ; 4.172324809573234E7 ; 1.2156591450981035E9 ; 8.374120626177552E9 ; 2.2378750666232574E11 ; 0.0
194 ; 4.1698338244492E7 ; 1.2157129668599334E9 ; 8.415843874273285E9 ; 2.2500316580742386E11 ; 0.0
195 ; 4.167775913908725E7 ; 1.2157665649104335E9 ; 8.4575422125177765E9 ; 2.2621887877428378E11 ; 0.0
196 ; 4.165876540192928E7 ; 1.2158199377569823E9 ; 8.499219971656864E9 ; 2.274346453391942E11 ; 0.0
