CSV File for the Network on Day 109
1 - Minute m 
2 - Power Consumed at minute m 
3 - Power Produced at minute m 
4 - Energy Consumed since the beginning of the day 
5 - Energy Produced since the beginning of the day 
6 - Energy Lost since the beginning of the day 
 
0 ; 3.8853378354513355E7 ; 6.353163729430246E8 ; 0.0 ; 0.0 ; 0.0
1 ; 3.889842876876015E7 ; 6.362272868355994E8 ; 3.8853378354513355E7 ; 6.353163729430246E8 ; 0.0
2 ; 3.894377048768064E7 ; 6.389915854883224E8 ; 7.77518071232735E7 ; 1.271543659778624E9 ; 0.0
3 ; 3.899307751640568E7 ; 6.436092843212538E8 ; 1.1669557761095414E8 ; 1.9105352452669463E9 ; 0.0
4 ; 3.904822394669316E7 ; 6.500803971418419E8 ; 1.556886551273598E8 ; 2.5541445295882E9 ; 0.0
5 ; 3.912381793563224E7 ; 6.584049360723796E8 ; 1.9473687907405296E8 ; 3.204224926730042E9 ; 0.0
6 ; 3.921692518565808E7 ; 6.685829114851619E8 ; 2.338606970096852E8 ; 3.8626298628024216E9 ; 0.0
7 ; 3.93414982815842E7 ; 6.806143319461472E8 ; 2.7307762219534326E8 ; 4.531212774287583E9 ; 0.0
8 ; 3.952945589374518E7 ; 6.944992041678281E8 ; 3.1241912047692746E8 ; 5.21182710623373E9 ; 0.0
9 ; 3.980773320451238E7 ; 7.102375329719224E8 ; 3.5194857637067264E8 ; 5.906326310401558E9 ; 0.0
10 ; 4.02488136243884E7 ; 7.278293212623653E8 ; 3.91756309575185E8 ; 6.61656384337348E9 ; 0.0
11 ; 4.094494191850776E7 ; 7.472745700089597E8 ; 4.320051231995734E8 ; 7.344393164635845E9 ; 0.0
12 ; 4.204692152731146E7 ; 7.685732782419022E8 ; 4.7295006511808115E8 ; 8.091667734644805E9 ; 0.0
13 ; 4.311652256087469E7 ; 7.917254430572581E8 ; 5.149969866453926E8 ; 8.860241012886707E9 ; 0.0
14 ; 4.3242466831967056E7 ; 8.167310596333101E8 ; 5.581135092062672E8 ; 9.651966455943966E9 ; 0.0
15 ; 4.3291340552172825E7 ; 8.435901212575647E8 ; 6.013559760382342E8 ; 1.0468697515577276E10 ; 0.0
16 ; 4.334524539820435E7 ; 8.72302619364064E8 ; 6.44647316590407E8 ; 1.131228763683484E10 ; 0.0
17 ; 4.3394661079187475E7 ; 9.028685435805131E8 ; 6.879925619886113E8 ; 1.2184590256198904E10 ; 0.0
18 ; 4.3446618535715505E7 ; 9.352878817846186E8 ; 7.313872230677989E8 ; 1.3087458799779417E10 ; 0.0
19 ; 4.3507685287086785E7 ; 9.695606201689328E8 ; 7.748338416035143E8 ; 1.4022746681564035E10 ; 0.0
20 ; 4.355699345479405E7 ; 1.0056867433133948E9 ; 8.183415268906012E8 ; 1.4992307301732967E10 ; 0.0
21 ; 4.361113423171931E7 ; 1.0436662342647091E9 ; 8.618985203453952E8 ; 1.5997994045046362E10 ; 0.0
22 ; 4.36614678791423E7 ; 1.083499074621624E9 ; 9.055096545771145E8 ; 1.7041660279311071E10 ; 0.0
23 ; 4.371322015748419E7 ; 1.1251852446251576E9 ; 9.491711224562567E8 ; 1.8125159353932693E10 ; 0.0
24 ; 4.377031572157018E7 ; 1.168724723252789E9 ; 9.928843426137409E8 ; 1.925034459855785E10 ; 0.0
25 ; 4.381844214028784E7 ; 1.20624573370474E9 ; 1.036654658335311E9 ; 2.041906932181064E10 ; 0.0
26 ; 4.386757891281448E7 ; 1.2062695397245603E9 ; 1.0804731004755988E9 ; 2.1625315055515377E10 ; 0.0
27 ; 4.391619122269651E7 ; 1.2062947328488553E9 ; 1.1243406793884132E9 ; 2.2831584595239937E10 ; 0.0
28 ; 4.3963921806216925E7 ; 1.206321287988449E9 ; 1.1682568706111097E9 ; 2.403787932808879E10 ; 0.0
29 ; 4.401904677278701E7 ; 1.20634917928777E9 ; 1.2122207924173267E9 ; 2.524420061607724E10 ; 0.0
30 ; 4.4065342468165666E7 ; 1.2063783802233956E9 ; 1.2562398391901138E9 ; 2.645054979536501E10 ; 0.0
31 ; 4.4117665647979595E7 ; 1.2064088637005298E9 ; 1.3003051816582794E9 ; 2.7656928175588406E10 ; 0.0
32 ; 4.4169572751024924E7 ; 1.2064406021468053E9 ; 1.344422847306259E9 ; 2.8863337039288937E10 ; 0.0
33 ; 4.421352076189534E7 ; 1.206473567602869E9 ; 1.3885924200572839E9 ; 3.006977764143574E10 ; 0.0
34 ; 4.4262201392847836E7 ; 1.2065077318092995E9 ; 1.4328059408191793E9 ; 3.1276251209038612E10 ; 0.0
35 ; 4.4298063977245554E7 ; 1.206543066289477E9 ; 1.477068142212027E9 ; 3.248275894084791E10 ; 0.0
36 ; 4.4344909833805546E7 ; 1.2065795424281082E9 ; 1.5213662061892726E9 ; 3.368930200713739E10 ; 0.0
37 ; 4.438362750898779E7 ; 1.2066171315451765E9 ; 1.5657111160230782E9 ; 3.48958815495655E10 ; 0.0
38 ; 4.442334907719503E7 ; 1.206655804965162E9 ; 1.610094743532066E9 ; 3.610249868111067E10 ; 0.0
39 ; 4.445452594699622E7 ; 1.2066955340814357E9 ; 1.654518092609261E9 ; 3.7309154486075836E10 ; 0.0
40 ; 4.4496970155654654E7 ; 1.2067362904157903E9 ; 1.6989726185562572E9 ; 3.851585002015727E10 ; 0.0
41 ; 4.4540967774998024E7 ; 1.2067780456731248E9 ; 1.743469588711912E9 ; 3.972258631057306E10 ; 0.0
42 ; 4.456883377567558E7 ; 1.206820771791341E9 ; 1.7880105564869099E9 ; 4.0929364356246185E10 ; 0.0
43 ; 4.460144317155251E7 ; 1.206864440986556E9 ; 1.8325793902625854E9 ; 4.213618512803753E10 ; 0.0
44 ; 4.463001192607252E7 ; 1.2069090257937593E9 ; 1.8771808334341378E9 ; 4.3343049569024086E10 ; 0.0
45 ; 4.465779965961618E7 ; 1.2069544991030817E9 ; 1.9218108453602104E9 ; 4.454995859481785E10 ; 0.0
46 ; 4.467729193319233E7 ; 1.2070008341918535E9 ; 1.9664686450198267E9 ; 4.575691309392093E10 ; 0.0
47 ; 4.470876868961722E7 ; 1.2070480047526617E9 ; 2.011145936953019E9 ; 4.6963913928112785E10 ; 0.0
48 ; 4.4721328093386255E7 ; 1.20709598491761E9 ; 2.055854705642636E9 ; 4.817096193286545E10 ; 0.0
49 ; 4.474758180053952E7 ; 1.2071447492790127E9 ; 2.1005760337360222E9 ; 4.937805791778306E10 ; 0.0
50 ; 4.4767465958040655E7 ; 1.207194272906745E9 ; 2.1453236155365617E9 ; 5.058520266706207E10 ; 0.0
51 ; 4.477953491717549E7 ; 1.207244531362482E9 ; 2.190091081494602E9 ; 5.179239693996882E10 ; 0.0
52 ; 4.479758856841514E7 ; 1.207295500711049E9 ; 2.2348706164117775E9 ; 5.29996414713313E10 ; 0.0
53 ; 4.481827843057169E7 ; 1.2073471575291169E9 ; 2.2796682049801927E9 ; 5.420693697204235E10 ; 0.0
54 ; 4.4827219135377005E7 ; 1.2073994789114523E9 ; 2.324486483410764E9 ; 5.5414284129571465E10 ; 0.0
55 ; 4.485233300060388E7 ; 1.2074524424749408E9 ; 2.369313702546141E9 ; 5.662168360848292E10 ; 0.0
56 ; 4.486159361555836E7 ; 1.207506026360587E9 ; 2.414166035546745E9 ; 5.7829136050957855E10 ; 0.0
57 ; 4.487706692038887E7 ; 1.2075602092336817E9 ; 2.459027629162303E9 ; 5.903664207731844E10 ; 0.0
58 ; 4.488614576621455E7 ; 1.207614970282328E9 ; 2.5039046960826917E9 ; 6.0244202286552124E10 ; 0.0
59 ; 4.489863496815353E7 ; 1.2076702892144969E9 ; 2.548790841848906E9 ; 6.145181725683445E10 ; 0.0
60 ; 4.491782225636849E7 ; 1.207726146253776E9 ; 2.5936894768170595E9 ; 6.265948754604895E10 ; 0.0
61 ; 4.492339290560925E7 ; 1.2077825221339693E9 ; 2.638607299073428E9 ; 6.386721369230273E10 ; 0.0
62 ; 4.493995080554417E7 ; 1.2078393980926833E9 ; 2.6835306919790373E9 ; 6.50749962144367E10 ; 0.0
63 ; 4.494850827492762E7 ; 1.2078967558640423E9 ; 2.7284706427845817E9 ; 6.628283561252938E10 ; 0.0
64 ; 4.4959418682974175E7 ; 1.2079545776706443E9 ; 2.7734191510595093E9 ; 6.7490732368393425E10 ; 0.0
65 ; 4.497012144369657E7 ; 1.2080128462148778E9 ; 2.8183785697424836E9 ; 6.869868694606407E10 ; 0.0
66 ; 4.4982845502710566E7 ; 1.208071544669698E9 ; 2.86334869118618E9 ; 6.990669979227895E10 ; 0.0
67 ; 4.499279660446409E7 ; 1.208130656668958E9 ; 2.9083315366888905E9 ; 7.111477133694864E10 ; 0.0
68 ; 4.501222747099716E7 ; 1.2081901662973802E9 ; 2.9533243332933545E9 ; 7.23229019936176E10 ; 0.0
69 ; 4.501792494514599E7 ; 1.2082500580802433E9 ; 2.998336560764352E9 ; 7.353109215991498E10 ; 0.0
70 ; 4.502173768463425E7 ; 1.2083103169728591E9 ; 3.043354485709498E9 ; 7.473934221799522E10 ; 0.0
71 ; 4.503363062287441E7 ; 1.2083709283498938E9 ; 3.088376223394132E9 ; 7.594765253496808E10 ; 0.0
72 ; 4.504168065843014E7 ; 1.2084318779945984E9 ; 3.1334098540170064E9 ; 7.715602346331798E10 ; 0.0
73 ; 4.504843724463605E7 ; 1.2084931520879922E9 ; 3.1784515346754365E9 ; 7.836445534131258E10 ; 0.0
74 ; 4.505926061516757E7 ; 1.2085547371980457E9 ; 3.2234999719200726E9 ; 7.957294849340057E10 ; 0.0
75 ; 4.506885101762155E7 ; 1.2086166202689E9 ; 3.26855923253524E9 ; 8.078150323059862E10 ; 0.0
76 ; 4.5068448200177E7 ; 1.2086787886101618E9 ; 3.3136280835528617E9 ; 8.199011985086752E10 ; 0.0
77 ; 4.5078476865645096E7 ; 1.2087412298862953E9 ; 3.358696531753039E9 ; 8.319879863947769E10 ; 0.0
78 ; 4.507345845022783E7 ; 1.2088039321061473E9 ; 3.403775008618684E9 ; 8.440753986936398E10 ; 0.0
79 ; 4.506388009059448E7 ; 1.2088668836126163E9 ; 3.4488484670689116E9 ; 8.561634380147012E10 ; 0.0
80 ; 4.5060147103620954E7 ; 1.2089300730724957E9 ; 3.493912347159506E9 ; 8.682521068508273E10 ; 0.0
81 ; 4.5051682259730026E7 ; 1.2089934894664989E9 ; 3.538972494263127E9 ; 8.803414075815523E10 ; 0.0
82 ; 4.504544389436385E7 ; 1.2090571220794811E9 ; 3.5840241765228567E9 ; 8.924313424762172E10 ; 0.0
83 ; 4.503172683376948E7 ; 1.2091209604908738E9 ; 3.6290696204172206E9 ; 9.04521913697012E10 ; 0.0
84 ; 4.502347141366802E7 ; 1.209184994565333E9 ; 3.67410134725099E9 ; 9.166131233019208E10 ; 0.0
85 ; 4.501985299463689E7 ; 1.209249214443613E9 ; 3.719124818664658E9 ; 9.287049732475742E10 ; 0.0
86 ; 4.50139333058518E7 ; 1.2093136105336692E9 ; 3.764144671659295E9 ; 9.407974653920103E10 ; 0.0
87 ; 4.499858564795891E7 ; 1.2093781735019948E9 ; 3.809158604965147E9 ; 9.528906014973471E10 ; 0.0
88 ; 4.4988771144441836E7 ; 1.2094428942651896E9 ; 3.854157190613106E9 ; 9.649843832323671E10 ; 0.0
89 ; 4.49814826194756E7 ; 1.2095077639817667E9 ; 3.8991459617575474E9 ; 9.770788121750189E10 ; 0.0
90 ; 4.496733921201377E7 ; 1.2095727740441952E9 ; 3.9441274443770227E9 ; 9.891738898148366E10 ; 0.0
91 ; 4.495150564411021E7 ; 1.209637916071176E9 ; 3.9890947835890365E9 ; 1.0012696175552785E11 ; 0.0
92 ; 4.4942557245676935E7 ; 1.209703181900152E9 ; 4.0340462892331467E9 ; 1.0133659967159903E11 ; 0.0
93 ; 4.493078725613648E7 ; 1.2097685635800476E9 ; 4.0789888464788237E9 ; 1.0254630285349918E11 ; 0.0
94 ; 4.4924525966038756E7 ; 1.2098340533642375E9 ; 4.12391963373496E9 ; 1.0375607141707922E11 ; 0.0
95 ; 4.490865582433703E7 ; 1.2098996437037373E9 ; 4.168844159700999E9 ; 1.0496590547044347E11 ; 0.0
96 ; 4.48984367447291E7 ; 1.2099653272406158E9 ; 4.213752815525336E9 ; 1.061758051141472E11 ; 0.0
97 ; 4.4879926847336374E7 ; 1.2100310968016224E9 ; 4.258651252270065E9 ; 1.0738577044138782E11 ; 0.0
98 ; 4.486864611332653E7 ; 1.2100969453920262E9 ; 4.303531179117401E9 ; 1.0859580153818944E11 ; 0.0
99 ; 4.485542734747217E7 ; 1.21016286618966E9 ; 4.348399825230727E9 ; 1.0980589848358147E11 ; 0.0
100 ; 4.483545532366914E7 ; 1.2102288525391688E9 ; 4.393255252578199E9 ; 1.1101606134977113E11 ; 0.0
101 ; 4.482891443515181E7 ; 1.21029489794645E9 ; 4.438090707901869E9 ; 1.122262902023103E11 ; 0.0
102 ; 4.480431292778212E7 ; 1.2103609960732899E9 ; 4.482919622337021E9 ; 1.1343658510025676E11 ; 0.0
103 ; 4.479245956365238E7 ; 1.2104271407321818E9 ; 4.527723935264803E9 ; 1.1464694609633005E11 ; 0.0
104 ; 4.477146076314458E7 ; 1.2104933258813276E9 ; 4.572516394828455E9 ; 1.1585737323706223E11 ; 0.0
105 ; 4.47539768506696E7 ; 1.210559545619813E9 ; 4.617287855591599E9 ; 1.1706786656294356E11 ; 0.0
106 ; 4.4744844973107636E7 ; 1.2106257941829526E9 ; 4.662041832442269E9 ; 1.1827842610856337E11 ; 0.0
107 ; 4.472248739082621E7 ; 1.210692065937801E9 ; 4.706786677415377E9 ; 1.1948905190274632E11 ; 0.0
108 ; 4.470593221829052E7 ; 1.2107583553788216E9 ; 4.751509164806203E9 ; 1.2069974396868413E11 ; 0.0
109 ; 4.468859547713602E7 ; 1.2108246571237125E9 ; 4.796215097024493E9 ; 1.2191050232406294E11 ; 0.0
110 ; 4.467190027457563E7 ; 1.2108909659093795E9 ; 4.840903692501629E9 ; 1.2312132698118666E11 ; 0.0
111 ; 4.465369392735174E7 ; 1.2109572765880523E9 ; 4.885575592776204E9 ; 1.2433221794709604E11 ; 0.0
112 ; 4.462531630418085E7 ; 1.211023584123545E9 ; 4.930229286703556E9 ; 1.255431752236841E11 ; 0.0
113 ; 4.460964859837502E7 ; 1.2110898835876458E9 ; 4.974854603007737E9 ; 1.2675419880780765E11 ; 0.0
114 ; 4.458309648839854E7 ; 1.2111561701566405E9 ; 5.0194642516061125E9 ; 1.279652886913953E11 ; 0.0
115 ; 4.456686506833285E7 ; 1.2112224391079612E9 ; 5.064047348094511E9 ; 1.2917644486155194E11 ; 0.0
116 ; 4.45555530529363E7 ; 1.2112886858169534E9 ; 5.108614213162844E9 ; 1.303876673006599E11 ; 0.0
117 ; 4.452396324791766E7 ; 1.2113549057537637E9 ; 5.15316976621578E9 ; 1.3159895598647685E11 ; 0.0
118 ; 4.45105763190938E7 ; 1.2114210944803376E9 ; 5.197693729463698E9 ; 1.3281031089223062E11 ; 0.0
119 ; 4.449036033288006E7 ; 1.2114872476475272E9 ; 5.242204305782792E9 ; 1.3402173198671095E11 ; 0.0
120 ; 4.446371194027729E7 ; 1.2115533609923027E9 ; 5.286694666115672E9 ; 1.3523321923435847E11 ; 0.0
121 ; 4.4443418447762966E7 ; 1.2116194303350656E9 ; 5.331158378055949E9 ; 1.3644477259535078E11 ; 0.0
122 ; 4.4420951353427306E7 ; 1.2116854515770588E9 ; 5.375601796503712E9 ; 1.3765639202568585E11 ; 0.0
123 ; 4.438943111053129E7 ; 1.2117514206978703E9 ; 5.420022747857139E9 ; 1.388680774772629E11 ; 0.0
124 ; 4.436976239406646E7 ; 1.2118173337530267E9 ; 5.4644121789676695E9 ; 1.400798288979608E11 ; 0.0
125 ; 4.434640425759657E7 ; 1.211883186871674E9 ; 5.508781941361736E9 ; 1.412916462317138E11 ; 0.0
126 ; 4.432356247110611E7 ; 1.211948976254343E9 ; 5.553128345619333E9 ; 1.4250352941858548E11 ; 0.0
127 ; 4.4302462103807434E7 ; 1.2120146981707926E9 ; 5.59745190809044E9 ; 1.437154783948398E11 ; 0.0
128 ; 4.426727745594315E7 ; 1.2120803489579327E9 ; 5.641754370194247E9 ; 1.4492749309301062E11 ; 0.0
129 ; 4.424935215456123E7 ; 1.2121459250178225E9 ; 5.68602164765019E9 ; 1.4613957344196857E11 ; 0.0
130 ; 4.421628161121984E7 ; 1.2122114228157368E9 ; 5.730270999804751E9 ; 1.473517193669864E11 ; 0.0
131 ; 4.417788057902897E7 ; 1.212276838878306E9 ; 5.774487281415971E9 ; 1.4856393078980212E11 ; 0.0
132 ; 4.413737445983437E7 ; 1.2123421697917204E9 ; 5.818665161995E9 ; 1.4977620762868042E11 ; 0.0
133 ; 4.40979609129998E7 ; 1.2124074121999977E9 ; 5.862802536454834E9 ; 1.5098854979847214E11 ; 0.0
134 ; 4.405687135396014E7 ; 1.212472562803314E9 ; 5.906900497367834E9 ; 1.5220095721067215E11 ; 0.0
135 ; 4.401514930379963E7 ; 1.2125376183563933E9 ; 5.950957368721794E9 ; 1.5341342977347546E11 ; 0.0
136 ; 4.397844755260568E7 ; 1.2126025756669545E9 ; 5.994972518025594E9 ; 1.5462596739183185E11 ; 0.0
137 ; 4.39344169592187E7 ; 1.2126674315942118E9 ; 6.038950965578199E9 ; 1.558385699674988E11 ; 0.0
138 ; 4.388902952508522E7 ; 1.2127321830474305E9 ; 6.082885382537418E9 ; 1.5705123739909302E11 ; 0.0
139 ; 4.384525986962119E7 ; 1.2127968269845324E9 ; 6.126774412062504E9 ; 1.5826396958214044E11 ; 0.0
140 ; 4.380825991014707E7 ; 1.2128613604107482E9 ; 6.170619671932125E9 ; 1.5947676640912497E11 ; 0.0
141 ; 4.376959151624757E7 ; 1.2129257803773232E9 ; 6.214427931842272E9 ; 1.606896277695357E11 ; 0.0
142 ; 4.371594483915632E7 ; 1.2129900839802604E9 ; 6.25819752335852E9 ; 1.6190255354991302E11 ; 0.0
143 ; 4.367476248449755E7 ; 1.2130542683591132E9 ; 6.301913468197676E9 ; 1.6311554363389328E11 ; 0.0
144 ; 4.3631705590196475E7 ; 1.213118330695818E9 ; 6.345588230682173E9 ; 1.6432859790225238E11 ; 0.0
145 ; 4.359862705773693E7 ; 1.2131822682135675E9 ; 6.389219936272369E9 ; 1.655417162329482E11 ; 0.0
146 ; 4.35741804490335E7 ; 1.2132460781757236E9 ; 6.432818563330107E9 ; 1.6675489850116177E11 ; 0.0
147 ; 4.354608940960626E7 ; 1.213309757884766E9 ; 6.47639274377914E9 ; 1.679681445793375E11 ; 0.0
148 ; 4.351851184284733E7 ; 1.2133733046812804E9 ; 6.519938833188746E9 ; 1.6918145433722226E11 ; 0.0
149 ; 4.348957862026007E7 ; 1.2134367159429774E9 ; 6.563457345031593E9 ; 1.7039482764190353E11 ; 0.0
150 ; 4.3466140533451885E7 ; 1.2134999890837488E9 ; 6.606946923651854E9 ; 1.716082643578465E11 ; 0.0
151 ; 4.3436810737436116E7 ; 1.2135631215527532E9 ; 6.650413064185306E9 ; 1.7282176434693024E11 ; 0.0
152 ; 4.34096315580599E7 ; 1.2136261108335342E9 ; 6.693849874922742E9 ; 1.74035327468483E11 ; 0.0
153 ; 4.3382518461061165E7 ; 1.213688954443169E9 ; 6.737259506480802E9 ; 1.7524895357931653E11 ; 0.0
154 ; 4.335020338504934E7 ; 1.2137516499314451E9 ; 6.780642024941863E9 ; 1.764626425337597E11 ; 0.0
155 ; 4.332334428875505E7 ; 1.2138141948800638E9 ; 6.823992228326912E9 ; 1.7767639418369116E11 ; 0.0
156 ; 4.329058766582622E7 ; 1.2138765869018729E9 ; 6.867315572615667E9 ; 1.7889020837857123E11 ; 0.0
157 ; 4.32639527007045E7 ; 1.2139388236401238E9 ; 6.910606160281493E9 ; 1.801040849654731E11 ; 0.0
158 ; 4.3238349842995144E7 ; 1.2140009027677536E9 ; 6.953870112982198E9 ; 1.8131802378911325E11 ; 0.0
159 ; 4.320609221418393E7 ; 1.2140628219866905E9 ; 6.997108462825192E9 ; 1.82532024691881E11 ; 0.0
160 ; 4.3176440345837E7 ; 1.2141245790271854E9 ; 7.040314555039376E9 ; 1.837460875138677E11 ; 0.0
161 ; 4.3148171858094655E7 ; 1.2141861716471603E9 ; 7.083490995385213E9 ; 1.849602120928949E11 ; 0.0
162 ; 4.3116417461092055E7 ; 1.2142475976315844E9 ; 7.126639167243307E9 ; 1.8617439826454205E11 ; 0.0
163 ; 4.308397175231425E7 ; 1.214308854791866E9 ; 7.169755584704399E9 ; 1.8738864586217365E11 ; 0.0
164 ; 4.3053789536505446E7 ; 1.2143699409652681E9 ; 7.212839556456714E9 ; 1.886029547169655E11 ; 0.0
165 ; 4.301313855546112E7 ; 1.214430854014339E9 ; 7.255893345993219E9 ; 1.898173246579308E11 ; 0.0
166 ; 4.2931198582121655E7 ; 1.214491591826367E9 ; 7.29890648454868E9 ; 1.9103175551194513E11 ; 0.0
167 ; 4.283991671161801E7 ; 1.2145521523128476E9 ; 7.341837683130802E9 ; 1.9224624710377148E11 ; 0.0
168 ; 4.274857461582314E7 ; 1.214612533408972E9 ; 7.384677599842421E9 ; 1.9346079925608432E11 ; 0.0
169 ; 4.2658631955480814E7 ; 1.2146727330731306E9 ; 7.427426174458243E9 ; 1.946754117894933E11 ; 0.0
170 ; 4.257746470281976E7 ; 1.2147327492864316E9 ; 7.470084806413724E9 ; 1.958900845225664E11 ; 0.0
171 ; 4.2475867566925E7 ; 1.214792580052237E9 ; 7.512662271116544E9 ; 1.9710481727185284E11 ; 0.0
172 ; 4.2389236752654225E7 ; 1.2148522233957143E9 ; 7.555138138683469E9 ; 1.983196098519051E11 ; 0.0
173 ; 4.230253626616713E7 ; 1.2149116773633986E9 ; 7.597527375436123E9 ; 1.995344620753008E11 ; 0.0
174 ; 4.221777482637767E7 ; 1.2149709400227733E9 ; 7.63982991170229E9 ; 2.007493737526642E11 ; 0.0
175 ; 4.214251772685686E7 ; 1.2150300094618616E9 ; 7.682047686528667E9 ; 2.0196434469268698E11 ; 0.0
176 ; 4.2060323227284074E7 ; 1.2150888837888317E9 ; 7.724190204255525E9 ; 2.0317937470214883E11 ; 0.0
177 ; 4.1991405237482175E7 ; 1.2151475611316156E9 ; 7.766250527482809E9 ; 2.0439446358593765E11 ; 0.0
178 ; 4.190268622693187E7 ; 1.2152060396375375E9 ; 7.808241932720291E9 ; 2.0560961114706927E11 ; 0.0
179 ; 4.182488974499521E7 ; 1.215264317472957E9 ; 7.850144618947223E9 ; 2.0682481718670682E11 ; 0.0
180 ; 4.175517712188939E7 ; 1.2153223928229208E9 ; 7.891969508692218E9 ; 2.0804008150417978E11 ; 0.0
181 ; 4.167186760947432E7 ; 1.2153802638908281E9 ; 7.933724685814107E9 ; 2.092554038970027E11 ; 0.0
182 ; 4.1593760622913145E7 ; 1.2154379288981042E9 ; 7.975396553423581E9 ; 2.1047078416089352E11 ; 0.0
183 ; 4.151684575478878E7 ; 1.2154953860838857E9 ; 8.0169903140464945E9 ; 2.1168622208979163E11 ; 0.0
184 ; 4.143109057635263E7 ; 1.215552633704715E9 ; 8.058507159801283E9 ; 2.1290171747587552E11 ; 0.0
185 ; 4.1366144770173386E7 ; 1.2156096700342443E9 ; 8.099938250377636E9 ; 2.1411727010958023E11 ; 0.0
186 ; 4.127477538758139E7 ; 1.2156664933629494E9 ; 8.141304395147809E9 ; 2.1533287977961447E11 ; 0.0
187 ; 4.119670173197071E7 ; 1.2157231019978518E9 ; 8.182579170535391E9 ; 2.1654854627297742E11 ; 0.0
188 ; 4.112401121105595E7 ; 1.2157794942622504E9 ; 8.223775872267362E9 ; 2.1776426937497528E11 ; 0.0
189 ; 4.104146685046004E7 ; 1.2158356684954596E9 ; 8.264899883478417E9 ; 2.1898004886923752E11 ; 0.0
190 ; 4.097094130794848E7 ; 1.2158916230525572E9 ; 8.305941350328877E9 ; 2.2019588453773297E11 ; 0.0
191 ; 4.0891056869385526E7 ; 1.2159473563041399E9 ; 8.346912291636826E9 ; 2.2141177616078552E11 ; 0.0
192 ; 4.08173246650361E7 ; 1.2160028666360853E9 ; 8.387803348506211E9 ; 2.2262772351708966E11 ; 0.0
193 ; 4.0731543030733526E7 ; 1.2160581524493232E9 ; 8.4286206731712475E9 ; 2.2384372638372574E11 ; 0.0
194 ; 4.0660371574447036E7 ; 1.2161132121596098E9 ; 8.469352216201981E9 ; 2.2505978453617505E11 ; 0.0
195 ; 4.057903101063036E7 ; 1.216168044197316E9 ; 8.510012587776427E9 ; 2.2627589774833466E11 ; 0.0
196 ; 4.049875223181904E7 ; 1.2162226470072126E9 ; 8.550591618787058E9 ; 2.2749206579253198E11 ; 0.0
197 ; 4.0417832672128335E7 ; 1.2162770190482721E9 ; 8.591090371018877E9 ; 2.2870828843953918E11 ; 0.0
