CSV File for the Network on Day 7
1 - Minute m 
2 - Power Consumed at minute m 
3 - Power Produced at minute m 
4 - Energy Consumed since the beginning of the day 
5 - Energy Produced since the beginning of the day 
6 - Energy Lost since the beginning of the day 
 
0 ; 3.8440599132251374E7 ; 6.327093414196475E8 ; 0.0 ; 0.0 ; 0.0
1 ; 3.848022574046739E7 ; 6.336122668176749E8 ; 3.8440599132251374E7 ; 6.327093414196475E8 ; 0.0
2 ; 3.852017729374915E7 ; 6.363691962263076E8 ; 7.692082487271877E7 ; 1.2663216082373223E9 ; 0.0
3 ; 3.8568482271843195E7 ; 6.409802114418724E8 ; 1.1544100216646792E8 ; 1.90269080446363E9 ; 0.0
4 ; 3.862672456283406E7 ; 6.474453889428495E8 ; 1.540094844383111E8 ; 2.5436710159055023E9 ; 0.0
5 ; 3.869873141992742E7 ; 6.557647985367079E8 ; 1.9263620900114515E8 ; 3.191116404848352E9 ; 0.0
6 ; 3.878475045985711E7 ; 6.659385020289866E8 ; 2.3133494042107257E8 ; 3.84688120338506E9 ; 0.0
7 ; 3.891672280597452E7 ; 6.77966551967274E8 ; 2.701196908809297E8 ; 4.512819705414046E9 ; 0.0
8 ; 3.909769508167269E7 ; 6.918489905150908E8 ; 3.0903641368690425E8 ; 5.19078625738132E9 ; 0.0
9 ; 3.938394281410505E7 ; 7.075858485091227E8 ; 3.481341087685769E8 ; 5.882635247896411E9 ; 0.0
10 ; 3.98133558019253E7 ; 7.25177144747417E8 ; 3.8751805158268195E8 ; 6.590221096405534E9 ; 0.0
11 ; 4.050140824328971E7 ; 7.4462288554616E8 ; 4.2733140738460726E8 ; 7.31539824115295E9 ; 0.0
12 ; 4.1609808090394154E7 ; 7.659230645891651E8 ; 4.6783281562789696E8 ; 8.06002112669911E9 ; 0.0
13 ; 4.26711286422235E7 ; 7.89077663078385E8 ; 5.094426237182911E8 ; 8.825944191288275E9 ; 0.0
14 ; 4.2797628248951346E7 ; 8.140866501771346E8 ; 5.521137523605146E8 ; 9.61502185436666E9 ; 0.0
15 ; 4.285022036547981E7 ; 8.409499837218931E8 ; 5.94911380609466E8 ; 1.0429108504543795E10 ; 0.0
16 ; 4.288984127967629E7 ; 8.696676111650717E8 ; 6.377616009749458E8 ; 1.1270058488265688E10 ; 0.0
17 ; 4.295241395130718E7 ; 9.002394707011317E8 ; 6.806514422546221E8 ; 1.213972609943076E10 ; 0.0
18 ; 4.299240460304591E7 ; 9.32665492522604E8 ; 7.236038562059293E8 ; 1.3039965570131891E10 ; 0.0
19 ; 4.304499337195541E7 ; 9.669456001510081E8 ; 7.665962608089752E8 ; 1.3972631062654495E10 ; 0.0
20 ; 4.309887867719428E7 ; 1.0030797117900176E9 ; 8.096412541809306E8 ; 1.4939576662805504E10 ; 0.0
21 ; 4.314796939021839E7 ; 1.0410677416537404E9 ; 8.527401328581249E8 ; 1.5942656374595522E10 ; 0.0
22 ; 4.31963596777702E7 ; 1.080909601230674E9 ; 8.958881022483432E8 ; 1.6983724116249262E10 ; 0.0
23 ; 4.324656084837741E7 ; 1.122605200452794E9 ; 9.390844619261134E8 ; 1.8064633717479935E10 ; 0.0
24 ; 4.328997238245873E7 ; 1.1661544487483597E9 ; 9.823310227744908E8 ; 1.9187238917932728E10 ; 0.0
25 ; 4.334145905298429E7 ; 1.2036855013547668E9 ; 1.0256209951569495E9 ; 2.0353393366681087E10 ; 0.0
26 ; 4.339165136355989E7 ; 1.2037195563294632E9 ; 1.0689624542099338E9 ; 2.1557078868035854E10 ; 0.0
27 ; 4.344205913266814E7 ; 1.203755142355825E9 ; 1.1123541055734937E9 ; 2.276079842436532E10 ; 0.0
28 ; 4.349245911473618E7 ; 1.2037921747531319E9 ; 1.155796164706162E9 ; 2.396455356672114E10 ; 0.0
29 ; 4.353819702574969E7 ; 1.203830571647675E9 ; 1.199288623820898E9 ; 2.5168345741474274E10 ; 0.0
30 ; 4.3585335010589585E7 ; 1.203870254278275E9 ; 1.2428268208466477E9 ; 2.637217631312195E10 ; 0.0
31 ; 4.363368330436583E7 ; 1.2039111472083921E9 ; 1.2864121558572373E9 ; 2.7576046567400223E10 ; 0.0
32 ; 4.367445656134931E7 ; 1.2039531784578073E9 ; 1.3300458391616032E9 ; 2.8779957714608616E10 ; 0.0
33 ; 4.371458244420528E7 ; 1.203996279566511E9 ; 1.3737202957229526E9 ; 2.998391089306642E10 ; 0.0
34 ; 4.376631759995693E7 ; 1.2040403856026425E9 ; 1.417434878167158E9 ; 3.118790717263293E10 ; 0.0
35 ; 4.3799141320939496E7 ; 1.2040854351252787E9 ; 1.4612011957671149E9 ; 3.2391947558235573E10 ; 0.0
36 ; 4.383904671664471E7 ; 1.204131370111662E9 ; 1.5050003370880544E9 ; 3.359603299336085E10 ; 0.0
37 ; 4.387575147497454E7 ; 1.2041781358572278E9 ; 1.5488393838046992E9 ; 3.480016436347251E10 ; 0.0
38 ; 4.391486218481147E7 ; 1.2042256808555756E9 ; 1.5927151352796738E9 ; 3.600434249932974E10 ; 0.0
39 ; 4.395095179012761E7 ; 1.2042739566643775E9 ; 1.6366299974644852E9 ; 3.720856818018532E10 ; 0.0
40 ; 4.3981077985202596E7 ; 1.204322917762194E9 ; 1.6805809492546127E9 ; 3.841284213684969E10 ; 0.0
41 ; 4.4016847168493584E7 ; 1.204372521400222E9 ; 1.7245620272398152E9 ; 3.9617165054611885E10 ; 0.0
42 ; 4.40398148156274E7 ; 1.204422727452209E9 ; 1.7685788744083087E9 ; 4.082153757601211E10 ; 0.0
43 ; 4.407606269785337E7 ; 1.2044734982650576E9 ; 1.812618689223936E9 ; 4.202596030346432E10 ; 0.0
44 ; 4.409996371342548E7 ; 1.2045247985120726E9 ; 1.8566947519217894E9 ; 4.323043380172938E10 ; 0.0
45 ; 4.4120800004406154E7 ; 1.204576595050301E9 ; 1.9007947156352148E9 ; 4.443495860024145E10 ; 0.0
46 ; 4.414683250389062E7 ; 1.204628856783026E9 ; 1.944915515639621E9 ; 4.563953519529175E10 ; 0.0
47 ; 4.416374864154497E7 ; 1.204681554528135E9 ; 1.9890623481435115E9 ; 4.6844164052074776E10 ; 0.0
48 ; 4.418104059744693E7 ; 1.2047346608928328E9 ; 2.0332260967850566E9 ; 4.804884560660291E10 ; 0.0
49 ; 4.4195291183698475E7 ; 1.2047881501549506E9 ; 2.0774071373825035E9 ; 4.925358026749574E10 ; 0.0
50 ; 4.4208421585019514E7 ; 1.2048419981509497E9 ; 2.121602428566202E9 ; 5.0458368417650696E10 ; 0.0
51 ; 4.422521797871795E7 ; 1.2048961821705837E9 ; 2.1658108501512213E9 ; 5.166321041580164E10 ; 0.0
52 ; 4.423569353443739E7 ; 1.2049506808580995E9 ; 2.210036068129939E9 ; 5.286810659797223E10 ; 0.0
53 ; 4.4252205589371935E7 ; 1.205005474119779E9 ; 2.2542717616643763E9 ; 5.407305727883033E10 ; 0.0
54 ; 4.4259276783671804E7 ; 1.205060543037583E9 ; 2.2985239672537484E9 ; 5.527806275295011E10 ; 0.0
55 ; 4.427100577758422E7 ; 1.2051158697886164E9 ; 2.3427832440374203E9 ; 5.648312329598769E10 ; 0.0
56 ; 4.4283657194139555E7 ; 1.205171437570125E9 ; 2.3870542498150043E9 ; 5.768823916577631E10 ; 0.0
57 ; 4.429784768783298E7 ; 1.2052272305297158E9 ; 2.431337907009144E9 ; 5.8893410603346436E10 ; 0.0
58 ; 4.430177308802621E7 ; 1.2052832337004907E9 ; 2.4756357546969767E9 ; 6.009863783387615E10 ; 0.0
59 ; 4.4305037024541706E7 ; 1.205339432940791E9 ; 2.5199375277850027E9 ; 6.1303921067576645E10 ; 0.0
60 ; 4.432471128372684E7 ; 1.2053958148782504E9 ; 2.5642425648095446E9 ; 6.250926050051743E10 ; 0.0
61 ; 4.432611175260103E7 ; 1.20545236685787E9 ; 2.6085672760932713E9 ; 6.371465631539568E10 ; 0.0
62 ; 4.433885625669901E7 ; 1.205509076893841E9 ; 2.6528933878458724E9 ; 6.4920108682253555E10 ; 0.0
63 ; 4.434162420210607E7 ; 1.2055659336248443E9 ; 2.6972322441025715E9 ; 6.61256177591474E10 ; 0.0
64 ; 4.435391623078246E7 ; 1.2056229262725878E9 ; 2.7415738683046775E9 ; 6.733118369277225E10 ; 0.0
65 ; 4.435779379811046E7 ; 1.2056800446033387E9 ; 2.78592778453546E9 ; 6.853680661904484E10 ; 0.0
66 ; 4.4362305708487205E7 ; 1.2057372788922377E9 ; 2.8302855783335705E9 ; 6.974248666364818E10 ; 0.0
67 ; 4.436547964210662E7 ; 1.205794619890182E9 ; 2.8746478840420575E9 ; 7.094822394254042E10 ; 0.0
68 ; 4.4374155460880466E7 ; 1.2058520587930956E9 ; 2.919013363684164E9 ; 7.21540185624306E10 ; 0.0
69 ; 4.437951749895844E7 ; 1.205909587213397E9 ; 2.9633875191450443E9 ; 7.33598706212237E10 ; 0.0
70 ; 4.4386431742544636E7 ; 1.2059671971535084E9 ; 3.007767036644003E9 ; 7.456578020843709E10 ; 0.0
71 ; 4.438878334146758E7 ; 1.2060248809812472E9 ; 3.0521534683865476E9 ; 7.577174740559059E10 ; 0.0
72 ; 4.44003083921569E7 ; 1.2060826314069612E9 ; 3.096542251728015E9 ; 7.697777228657184E10 ; 0.0
73 ; 4.440138054333827E7 ; 1.2061404414622731E9 ; 3.140942560120172E9 ; 7.81838549179788E10 ; 0.0
74 ; 4.440211706292098E7 ; 1.206198304480316E9 ; 3.1853439406635103E9 ; 7.938999535944109E10 ; 0.0
75 ; 4.440075253497543E7 ; 1.2062562140773425E9 ; 3.2297460577264314E9 ; 8.05961936639214E10 ; 0.0
76 ; 4.440639455714665E7 ; 1.2063141641356132E9 ; 3.274146810261407E9 ; 8.180244987799875E10 ; 0.0
77 ; 4.440666475818725E7 ; 1.206372148787458E9 ; 3.3185532048185534E9 ; 8.300876404213437E10 ; 0.0
78 ; 4.439696173863032E7 ; 1.2064301624004302E9 ; 3.3629598695767407E9 ; 8.421513619092183E10 ; 0.0
79 ; 4.4382978535362154E7 ; 1.2064881995634692E9 ; 3.407356831315371E9 ; 8.542156635332227E10 ; 0.0
80 ; 4.437075067134192E7 ; 1.2065462550739977E9 ; 3.4517398098507333E9 ; 8.662805455288574E10 ; 0.0
81 ; 4.435978976900469E7 ; 1.2066043239258823E9 ; 3.496110560522075E9 ; 8.783460080795975E10 ; 0.0
82 ; 4.43454725948087E7 ; 1.2066624012981982E9 ; 3.54047035029108E9 ; 8.904120513188564E10 ; 0.0
83 ; 4.433482528891517E7 ; 1.2067204825447347E9 ; 3.5848158228858886E9 ; 9.024786753318384E10 ; 0.0
84 ; 4.432181259382475E7 ; 1.20677856318419E9 ; 3.6291506481748037E9 ; 9.145458801572858E10 ; 0.0
85 ; 4.430155574601778E7 ; 1.2068366388910058E9 ; 3.6734724607686286E9 ; 9.266136657891277E10 ; 0.0
86 ; 4.429250797520558E7 ; 1.2068947054867935E9 ; 3.7177740165146465E9 ; 9.386820321780377E10 ; 0.0
87 ; 4.4273722380579494E7 ; 1.2069527589323125E9 ; 3.762066524489852E9 ; 9.507509792329056E10 ; 0.0
88 ; 4.4257492517818004E7 ; 1.2070107953199575E9 ; 3.8063402468704314E9 ; 9.628205068222287E10 ; 0.0
89 ; 4.4245843661718816E7 ; 1.2070688108667235E9 ; 3.8505977393882494E9 ; 9.748906147754283E10 ; 0.0
90 ; 4.423181216410899E7 ; 1.207126801907611E9 ; 3.8948435830499682E9 ; 9.869613028840956E10 ; 0.0
91 ; 4.420310667675763E7 ; 1.2071847648894417E9 ; 3.939075395214077E9 ; 9.990325709031717E10 ; 0.0
92 ; 4.418877159025431E7 ; 1.2072426963650599E9 ; 3.983278501890835E9 ; 1.011104418552066E11 ; 0.0
93 ; 4.4178778227035664E7 ; 1.2073005929878843E9 ; 4.027467273481089E9 ; 1.0231768455157167E11 ; 0.0
94 ; 4.415661190358503E7 ; 1.2073584515067966E9 ; 4.0716460517081246E9 ; 1.0352498514455956E11 ; 0.0
95 ; 4.4135969151522435E7 ; 1.2074162687613368E9 ; 4.1158026636117096E9 ; 1.0473234359606635E11 ; 0.0
96 ; 4.4113512871824116E7 ; 1.207474041677187E9 ; 4.159938632763232E9 ; 1.0593975986482768E11 ; 0.0
97 ; 4.409873234704232E7 ; 1.207531767261925E9 ; 4.2040521456350565E9 ; 1.0714723390650487E11 ; 0.0
98 ; 4.407912239157609E7 ; 1.2075894426010263E9 ; 4.2481508779820986E9 ; 1.083547656737668E11 ; 0.0
99 ; 4.405165503746715E7 ; 1.2076470648541048E9 ; 4.292230000373675E9 ; 1.0956235511636783E11 ; 0.0
100 ; 4.404289497512825E7 ; 1.207704631251368E9 ; 4.336281655411142E9 ; 1.1077000218122194E11 ; 0.0
101 ; 4.4016118043586396E7 ; 1.20776213909028E9 ; 4.3803245503862705E9 ; 1.1197770681247331E11 ; 0.0
102 ; 4.3993937573671475E7 ; 1.2078195857324138E9 ; 4.424340668429857E9 ; 1.131854689515636E11 ; 0.0
103 ; 4.397525251820899E7 ; 1.2078769686004848E9 ; 4.468334606003529E9 ; 1.14393288537296E11 ; 0.0
104 ; 4.394937897025743E7 ; 1.2079342851755505E9 ; 4.512309858521738E9 ; 1.1560116550589648E11 ; 0.0
105 ; 4.393001186806095E7 ; 1.2079915329943664E9 ; 4.556259237491996E9 ; 1.1680909979107204E11 ; 0.0
106 ; 4.3911041081998795E7 ; 1.208048709646892E9 ; 4.600189249360057E9 ; 1.180170913240664E11 ; 0.0
107 ; 4.387599512612938E7 ; 1.2081058127739315E9 ; 4.644100290442056E9 ; 1.192251400337133E11 ; 0.0
108 ; 4.386294352061668E7 ; 1.2081628400649068E9 ; 4.687976285568185E9 ; 1.2043324584648723E11 ; 0.0
109 ; 4.3836066940553E7 ; 1.2082197892557492E9 ; 4.731839229088801E9 ; 1.2164140868655214E11 ; 0.0
110 ; 4.381284800094855E7 ; 1.208276658126906E9 ; 4.775675296029354E9 ; 1.2284962847580789E11 ; 0.0
111 ; 4.3779989245731086E7 ; 1.2083334445014558E9 ; 4.819488144030303E9 ; 1.240579051339348E11 ; 0.0
112 ; 4.374744244718462E7 ; 1.2083901462433221E9 ; 4.863268133276034E9 ; 1.2526623857843625E11 ; 0.0
113 ; 4.373158617527643E7 ; 1.2084467612555823E9 ; 4.907015575723219E9 ; 1.2647462872467957E11 ; 0.0
114 ; 4.3697496305785954E7 ; 1.2085032874788656E9 ; 4.950747161898496E9 ; 1.2768307548593515E11 ; 0.0
115 ; 4.3675455672726616E7 ; 1.2085597228898354E9 ; 4.994444658204282E9 ; 1.2889157877341402E11 ; 0.0
116 ; 4.364500626281167E7 ; 1.2086160654997487E9 ; 5.038120113877008E9 ; 1.3010013849630385E11 ; 0.0
117 ; 4.362492336512712E7 ; 1.2086723133530905E9 ; 5.08176512013982E9 ; 1.313087545618036E11 ; 0.0
118 ; 4.3596979210531496E7 ; 1.20872846452628E9 ; 5.125390043504948E9 ; 1.325174268751567E11 ; 0.0
119 ; 4.356814740670277E7 ; 1.2087845171264386E9 ; 5.168987022715479E9 ; 1.3372615533968297E11 ; 0.0
120 ; 4.353007457218812E7 ; 1.2088404692902234E9 ; 5.212555170122182E9 ; 1.349349398568094E11 ; 0.0
121 ; 4.350582865642187E7 ; 1.208896319182718E9 ; 5.25608524469437E9 ; 1.3614378032609962E11 ; 0.0
122 ; 4.347885737200773E7 ; 1.2089520649963794E9 ; 5.299591073350792E9 ; 1.3735267664528235E11 ; 0.0
123 ; 4.344754320325537E7 ; 1.209007704950035E9 ; 5.343069930722799E9 ; 1.3856162871027872E11 ; 0.0
124 ; 4.3416116467203155E7 ; 1.209063237287931E9 ; 5.386517473926055E9 ; 1.3977063641522876E11 ; 0.0
125 ; 4.337924294865409E7 ; 1.209118660278827E9 ; 5.429933590393258E9 ; 1.409796996525167E11 ; 0.0
126 ; 4.3346443602840595E7 ; 1.2091739722151346E9 ; 5.473312833341912E9 ; 1.4218881831279553E11 ; 0.0
127 ; 4.3321028746179864E7 ; 1.209229171412096E9 ; 5.516659276944753E9 ; 1.4339799228501068E11 ; 0.0
128 ; 4.328854717851436E7 ; 1.2092842562070045E9 ; 5.559980305690932E9 ; 1.446072214564228E11 ; 0.0
129 ; 4.325017309351857E7 ; 1.2093392249584613E9 ; 5.603268852869447E9 ; 1.458165057126298E11 ; 0.0
130 ; 4.3210005966673955E7 ; 1.2093940760456655E9 ; 5.646519025962965E9 ; 1.4702584493758826E11 ; 0.0
131 ; 4.316504289656606E7 ; 1.209448807867742E9 ; 5.689729031929639E9 ; 1.482352390136339E11 ; 0.0
132 ; 4.3115197444986254E7 ; 1.2095034188430967E9 ; 5.732894074826205E9 ; 1.4944468782150165E11 ; 0.0
133 ; 4.3070715413941E7 ; 1.2095579074088044E9 ; 5.776009272271192E9 ; 1.5065419124034476E11 ; 0.0
134 ; 4.301921280877468E7 ; 1.2096122720200224E9 ; 5.819079987685133E9 ; 1.5186374914775357E11 ; 0.0
135 ; 4.297580274147883E7 ; 1.2096665111494353E9 ; 5.862099200493908E9 ; 1.530733614197736E11 ; 0.0
136 ; 4.292647601516797E7 ; 1.2097206232867217E9 ; 5.905075003235387E9 ; 1.5428302793092303E11 ; 0.0
137 ; 4.2875147851410344E7 ; 1.209774606938046E9 ; 5.948001479250555E9 ; 1.5549274855420975E11 ; 0.0
138 ; 4.2821993023265116E7 ; 1.2098284606255746E9 ; 5.990876627101965E9 ; 1.567025231611478E11 ; 0.0
139 ; 4.276772098238895E7 ; 1.2098821828870125E9 ; 6.03369862012523E9 ; 1.5791235162177338E11 ; 0.0
140 ; 4.272803673140844E7 ; 1.209935772275162E9 ; 6.076466341107618E9 ; 1.591222338046604E11 ; 0.0
141 ; 4.267243141235002E7 ; 1.2099892273574991E9 ; 6.119194377839026E9 ; 1.6033216957693558E11 ; 0.0
142 ; 4.262855966585016E7 ; 1.2100425467157717E9 ; 6.161866809251376E9 ; 1.615421588042931E11 ; 0.0
143 ; 4.2574595595316134E7 ; 1.2100957289456124E9 ; 6.204495368917227E9 ; 1.6275220135100885E11 ; 0.0
144 ; 4.2518074728301935E7 ; 1.2101487726561716E9 ; 6.247069964512543E9 ; 1.6396229707995447E11 ; 0.0
145 ; 4.248611176531187E7 ; 1.2102016764697635E9 ; 6.289588039240845E9 ; 1.6517244585261063E11 ; 0.0
146 ; 4.244519087636954E7 ; 1.2102544390215306E9 ; 6.332074151006157E9 ; 1.6638264752908038E11 ; 0.0
147 ; 4.241206977626619E7 ; 1.21030705895912E9 ; 6.374519341882526E9 ; 1.6759290196810193E11 ; 0.0
148 ; 4.237983616459434E7 ; 1.2103595349423761E9 ; 6.4169314116587925E9 ; 1.6880320902706104E11 ; 0.0
149 ; 4.2341695889666274E7 ; 1.2104118656430447E9 ; 6.459311247823387E9 ; 1.7001356856200342E11 ; 0.0
150 ; 4.230358233181389E7 ; 1.210464049744491E9 ; 6.501652943713054E9 ; 1.7122398042764645E11 ; 0.0
151 ; 4.227187471898221E7 ; 1.2105160859414296E9 ; 6.5439565260448675E9 ; 1.7243444447739093E11 ; 0.0
152 ; 4.222762675602376E7 ; 1.2105679729396648E9 ; 6.586228400763849E9 ; 1.7364496056333237E11 ; 0.0
153 ; 4.219066560455851E7 ; 1.2106197094558444E9 ; 6.628456027519873E9 ; 1.7485552853627203E11 ; 0.0
154 ; 4.215389579095705E7 ; 1.2106712942172203E9 ; 6.670646693124432E9 ; 1.7606614824572787E11 ; 0.0
155 ; 4.2122747837325804E7 ; 1.2107227259614227E9 ; 6.712800588915389E9 ; 1.772768195399451E11 ; 0.0
156 ; 4.207566352476913E7 ; 1.210774003436242E9 ; 6.754923336752715E9 ; 1.7848754226590652E11 ; 0.0
157 ; 4.204173295683496E7 ; 1.2108251253994207E9 ; 6.796999000277484E9 ; 1.7969831626934277E11 ; 0.0
158 ; 4.2005244664879344E7 ; 1.210876090618451E9 ; 6.839040733234319E9 ; 1.809091413947422E11 ; 0.0
159 ; 4.196330987340784E7 ; 1.2109268978703878E9 ; 6.881045977899199E9 ; 1.8212001748536063E11 ; 0.0
160 ; 4.19303952107282E7 ; 1.21097754594166E9 ; 6.923009287772606E9 ; 1.8333094438323102E11 ; 0.0
161 ; 4.188740972822028E7 ; 1.2110280336278977E9 ; 6.964939682983335E9 ; 1.8454192192917267E11 ; 0.0
162 ; 4.1841773099428415E7 ; 1.2110783597337627E9 ; 7.006827092711555E9 ; 1.8575294996280057E11 ; 0.0
163 ; 4.181594117508365E7 ; 1.2111285230727863E9 ; 7.048668865810983E9 ; 1.8696402832253433E11 ; 0.0
164 ; 4.1779361431014046E7 ; 1.2111785224672148E9 ; 7.090484806986067E9 ; 1.8817515684560712E11 ; 0.0
165 ; 4.173075780236137E7 ; 1.2112283567478592E9 ; 7.132264168417081E9 ; 1.8938633536807434E11 ; 0.0
166 ; 4.1696918319597915E7 ; 1.2112780247539546E9 ; 7.173994926219442E9 ; 1.905975637248222E11 ; 0.0
167 ; 4.165319540275802E7 ; 1.2113275253330216E9 ; 7.215691844539041E9 ; 1.9180884174957617E11 ; 0.0
168 ; 4.16150812487683E7 ; 1.2113768573407354E9 ; 7.257345039941798E9 ; 1.9302016927490918E11 ; 0.0
169 ; 4.1576032955335766E7 ; 1.2114260196408007E9 ; 7.298960121190566E9 ; 1.942315461322499E11 ; 0.0
170 ; 4.153499022761624E7 ; 1.2114750111048293E9 ; 7.340536154145902E9 ; 1.9544297215189072E11 ; 0.0
171 ; 4.1491830779350735E7 ; 1.2115238306122255E9 ; 7.382071144373518E9 ; 1.9665444716299554E11 ; 0.0
172 ; 4.145466549311317E7 ; 1.2115724770500736E9 ; 7.423562975152868E9 ; 1.9786597099360776E11 ; 0.0
173 ; 4.142057167760737E7 ; 1.2116209493130329E9 ; 7.465017640645982E9 ; 1.9907754347065784E11 ; 0.0
174 ; 4.139418020925348E7 ; 1.2116692463032331E9 ; 7.506438212323589E9 ; 2.0028916441997086E11 ; 0.0
175 ; 4.1367859845237896E7 ; 1.2117173669301777E9 ; 7.547832392532843E9 ; 2.0150083366627408E11 ; 0.0
176 ; 4.133354986082186E7 ; 1.2117653101106486E9 ; 7.58920025237808E9 ; 2.0271255103320425E11 ; 0.0
177 ; 4.1321167864902206E7 ; 1.2118130747686157E9 ; 7.630533802238902E9 ; 2.039243163433149E11 ; 0.0
178 ; 4.129314946174523E7 ; 1.2118606598351514E9 ; 7.671854970103805E9 ; 2.0513612941808353E11 ; 0.0
179 ; 4.126819831616936E7 ; 1.211908064248345E9 ; 7.71314811956555E9 ; 2.0634799007791867E11 ; 0.0
180 ; 4.1247851911114804E7 ; 1.2119552869532235E9 ; 7.75441631788172E9 ; 2.0755989814216702E11 ; 0.0
181 ; 4.122004985437384E7 ; 1.2120023269016764E9 ; 7.795664169792834E9 ; 2.0877185342912024E11 ; 0.0
182 ; 4.119695034016402E7 ; 1.2120491830523796E9 ; 7.836884219647208E9 ; 2.099838557560219E11 ; 0.0
183 ; 4.1171940423579365E7 ; 1.2120958543707259E9 ; 7.878081169987372E9 ; 2.1119590493907428E11 ; 0.0
184 ; 4.114482946273815E7 ; 1.2121423398287573E9 ; 7.919253110410952E9 ; 2.12408000793445E11 ; 0.0
185 ; 4.112279639712314E7 ; 1.2121886384050994E9 ; 7.96039793987369E9 ; 2.1362014313327377E11 ; 0.0
186 ; 4.109432242950587E7 ; 1.2122347490848994E9 ; 8.001520736270813E9 ; 2.1483233177167886E11 ; 0.0
187 ; 4.107052867476943E7 ; 1.2122806708597653E9 ; 8.042615058700319E9 ; 2.1604456652076376E11 ; 0.0
188 ; 4.1045961100343734E7 ; 1.2123264027277095E9 ; 8.083685587375089E9 ; 2.1725684719162354E11 ; 0.0
189 ; 4.102507919146382E7 ; 1.212371943693093E9 ; 8.124731548475432E9 ; 2.1846917359435126E11 ; 0.0
190 ; 4.0996936764852926E7 ; 1.2124172927665727E9 ; 8.165756627666896E9 ; 2.1968154553804434E11 ; 0.0
191 ; 4.097330935847634E7 ; 1.2124624489650505E9 ; 8.206753564431748E9 ; 2.208939628308109E11 ; 0.0
192 ; 4.0948143524679884E7 ; 1.2125074113116243E9 ; 8.247726873790225E9 ; 2.2210642527977597E11 ; 0.0
193 ; 4.0926114307743475E7 ; 1.212552178835543E9 ; 8.288675017314905E9 ; 2.233189326910876E11 ; 0.0
194 ; 4.08976813208107E7 ; 1.2125967505721593E9 ; 8.329601131622648E9 ; 2.2453148486992313E11 ; 0.0
195 ; 4.087827802707412E7 ; 1.2126411255628889E9 ; 8.370498812943459E9 ; 2.257440816204953E11 ; 0.0
196 ; 4.0854331799984604E7 ; 1.212685302855168E9 ; 8.411377090970532E9 ; 2.269567227460582E11 ; 0.0
