CSV File for the Network on Day 45
1 - Minute m 
2 - Power Consumed at minute m 
3 - Power Produced at minute m 
4 - Energy Consumed since the beginning of the day 
5 - Energy Produced since the beginning of the day 
6 - Energy Lost since the beginning of the day 
 
0 ; 3.83973650296496E7 ; 6.332007274551603E8 ; 0.0 ; 0.0 ; 0.0
1 ; 3.8440186773322076E7 ; 6.341073519076703E8 ; 3.83973650296496E7 ; 6.332007274551603E8 ; 0.0
2 ; 3.848321429705037E7 ; 6.368677121507316E8 ; 7.683755180297168E7 ; 1.2673080793628306E9 ; 0.0
3 ; 3.853228882212302E7 ; 6.414818546725144E8 ; 1.1532076610002205E8 ; 1.9041757915135622E9 ; 0.0
4 ; 3.857983774161079E7 ; 6.479498220543478E8 ; 1.5385305492214507E8 ; 2.5456576461860766E9 ; 0.0
5 ; 3.8656167981338084E7 ; 6.562716524450946E8 ; 1.9243289266375586E8 ; 3.193607468240424E9 ; 0.0
6 ; 3.874797406996286E7 ; 6.664473790677735E8 ; 2.3108906064509395E8 ; 3.8498791206855187E9 ; 0.0
7 ; 3.887594519178044E7 ; 6.784770297723894E8 ; 2.698370347150568E8 ; 4.516326499753292E9 ; 0.0
8 ; 3.905562077745937E7 ; 6.923606266484101E8 ; 3.087129799068372E8 ; 5.1948035295256815E9 ; 0.0
9 ; 3.9341478107287526E7 ; 7.080981857091103E8 ; 3.477686006842966E8 ; 5.887164156174091E9 ; 0.0
10 ; 3.977597462982864E7 ; 7.256897166581354E8 ; 3.8711007879158413E8 ; 6.595262341883202E9 ; 0.0
11 ; 4.047117676937314E7 ; 7.451352227461475E8 ; 4.2688605342141277E8 ; 7.320952058541337E9 ; 0.0
12 ; 4.157309451733726E7 ; 7.664347007224842E8 ; 4.673572301907859E8 ; 8.066087281287484E9 ; 0.0
13 ; 4.263378558417325E7 ; 7.895881408835005E8 ; 5.0893032470812315E8 ; 8.832521982009968E9 ; 0.0
14 ; 4.2763346153091185E7 ; 8.145955272159218E8 ; 5.515641102922964E8 ; 9.622110122893469E9 ; 0.0
15 ; 4.281294067828304E7 ; 8.414568376302795E8 ; 5.943274564453876E8 ; 1.043670565010939E10 ; 0.0
16 ; 4.286286836704283E7 ; 8.701720442765701E8 ; 6.371403971236707E8 ; 1.127816248773967E10 ; 0.0
17 ; 4.290621260993916E7 ; 9.007411139317737E8 ; 6.800032654907135E8 ; 1.214833453201624E10 ; 0.0
18 ; 4.2957720135251865E7 ; 9.331640084470277E8 ; 7.229094781006527E8 ; 1.3049075645948013E10 ; 0.0
19 ; 4.301389481900382E7 ; 9.674406852410035E8 ; 7.658671982359046E8 ; 1.398223965439504E10 ; 0.0
20 ; 4.3060306466729045E7 ; 1.0035710978255304E9 ; 8.088810930549084E8 ; 1.4949680339636044E10 ; 0.0
21 ; 4.3108820011732124E7 ; 1.0415551963496382E9 ; 8.519413995216374E8 ; 1.5953251437461575E10 ; 0.0
22 ; 4.3160802041654035E7 ; 1.0813929281488888E9 ; 8.950502195333695E8 ; 1.6994806633811213E10 ; 0.0
23 ; 4.3212154662551396E7 ; 1.123084238288053E9 ; 9.382110215750235E8 ; 1.8076199561960102E10 ; 0.0
24 ; 4.325965372379477E7 ; 1.1666290700867026E9 ; 9.814231762375749E8 ; 1.9199283800248154E10 ; 0.0
25 ; 4.3305854916554525E7 ; 1.2041556110081367E9 ; 1.0246828299613698E9 ; 2.0365912870334858E10 ; 0.0
26 ; 4.336354719957252E7 ; 1.2041850893479528E9 ; 1.0679886848779243E9 ; 2.1570068481342995E10 ; 0.0
27 ; 4.340335685372596E7 ; 1.2042160618130178E9 ; 1.1113522320774968E9 ; 2.277425357069095E10 ; 0.0
28 ; 4.3456653238921955E7 ; 1.2042484693906846E9 ; 1.1547555889312227E9 ; 2.3978469632503967E10 ; 0.0
29 ; 4.3500577420282625E7 ; 1.2042822534541483E9 ; 1.1982122421701446E9 ; 2.5182718101894653E10 ; 0.0
30 ; 4.355223315582759E7 ; 1.2043173560652301E9 ; 1.2417128195904272E9 ; 2.63870003553488E10 ; 0.0
31 ; 4.359614212352676E7 ; 1.20435372023482E9 ; 1.2852650527462547E9 ; 2.7591317711414032E10 ; 0.0
32 ; 4.364366876934632E7 ; 1.2043912901426067E9 ; 1.3288611948697815E9 ; 2.8795671431648853E10 ; 0.0
33 ; 4.369074270967417E7 ; 1.20443001131844E9 ; 1.3725048636391277E9 ; 3.000006272179146E10 ; 0.0
34 ; 4.372216206685215E7 ; 1.204469830788117E9 ; 1.4161956063488019E9 ; 3.1204492733109898E10 ; 0.0
35 ; 4.3772302417932324E7 ; 1.2045106971867137E9 ; 1.459917768415654E9 ; 3.2408962563898014E10 ; 0.0
36 ; 4.3797658945031375E7 ; 1.2045525608427136E9 ; 1.5036900708335862E9 ; 3.361347326108473E10 ; 0.0
37 ; 4.384363268583912E7 ; 1.2045953738362193E9 ; 1.5474877297786176E9 ; 3.4818025821927444E10 ; 0.0
38 ; 4.387613938133533E7 ; 1.204639090034474E9 ; 1.5913313624644568E9 ; 3.6022621195763664E10 ; 0.0
39 ; 4.3909683652472295E7 ; 1.20468366510776E9 ; 1.635207501845792E9 ; 3.722726028579814E10 ; 0.0
40 ; 4.3946395061192736E7 ; 1.2047290565285676E9 ; 1.6791171854982643E9 ; 3.84319439509059E10 ; 0.0
41 ; 4.3979970953970864E7 ; 1.204775223556697E9 ; 1.723063580559457E9 ; 3.963667300743446E10 ; 0.0
42 ; 4.400458304888336E7 ; 1.2048221272127087E9 ; 1.767043551513428E9 ; 4.084144823099116E10 ; 0.0
43 ; 4.4036903521040015E7 ; 1.2048697302419024E9 ; 1.8110481345623114E9 ; 4.2046270358203865E10 ; 0.0
44 ; 4.405777694367619E7 ; 1.2049179970707428E9 ; 1.8550850380833514E9 ; 4.325114008844577E10 ; 0.0
45 ; 4.408483683956079E7 ; 1.2049668937574322E9 ; 1.8991428150270276E9 ; 4.445605808551651E10 ; 0.0
46 ; 4.4107321914312564E7 ; 1.205016387938089E9 ; 1.9432276518665884E9 ; 4.566102497927394E10 ; 0.0
47 ; 4.412815041186702E7 ; 1.2050664487698002E9 ; 1.987334973780901E9 ; 4.686604136721203E10 ; 0.0
48 ; 4.414159329406478E7 ; 1.2051170468716178E9 ; 2.031463124192768E9 ; 4.807110781598183E10 ; 0.0
49 ; 4.4160268225633115E7 ; 1.2051681542644043E9 ; 2.0756047174868329E9 ; 4.927622486285345E10 ; 0.0
50 ; 4.417916123106368E7 ; 1.2052197443102815E9 ; 2.119764985712466E9 ; 5.048139301711785E10 ; 0.0
51 ; 4.4189830850417055E7 ; 1.2052717916522987E9 ; 2.1639441469435296E9 ; 5.168661276142813E10 ; 0.0
52 ; 4.419225299304901E7 ; 1.2053242721548274E9 ; 2.2081339777939467E9 ; 5.289188455308043E10 ; 0.0
53 ; 4.420967617337548E7 ; 1.2053771628450828E9 ; 2.252326230786996E9 ; 5.409720882523526E10 ; 0.0
54 ; 4.422230351801256E7 ; 1.205430441856089E9 ; 2.2965359069603715E9 ; 5.5302585988080345E10 ; 0.0
55 ; 4.423311716242733E7 ; 1.2054840883713257E9 ; 2.340758210478384E9 ; 5.650801642993643E10 ; 0.0
56 ; 4.424328022125004E7 ; 1.2055380825712414E9 ; 2.3849913276408114E9 ; 5.7713500518307755E10 ; 0.0
57 ; 4.424397500196824E7 ; 1.205592405581752E9 ; 2.4292346078620615E9 ; 5.8919038600879E10 ; 0.0
58 ; 4.426253781955651E7 ; 1.2056470394248123E9 ; 2.47347858286403E9 ; 6.012463100646075E10 ; 0.0
59 ; 4.426566950626783E7 ; 1.2057019669711025E9 ; 2.5177411206835866E9 ; 6.133027804588556E10 ; 0.0
60 ; 4.4271207275972545E7 ; 1.2057571718948483E9 ; 2.5620067901898546E9 ; 6.253598001285666E10 ; 0.0
61 ; 4.428506944075679E7 ; 1.2058126386307654E9 ; 2.606277997465827E9 ; 6.374173718475151E10 ; 0.0
62 ; 4.429014918861617E7 ; 1.2058683523331E9 ; 2.650563066906584E9 ; 6.494754982338228E10 ; 0.0
63 ; 4.430200516659016E7 ; 1.2059242988367264E9 ; 2.6948532160952E9 ; 6.615341817571538E10 ; 0.0
64 ; 4.430681151412929E7 ; 1.2059804646202445E9 ; 2.7391552212617903E9 ; 6.73593424745521E10 ; 0.0
65 ; 4.431246302728951E7 ; 1.2060368367710168E9 ; 2.7834620327759194E9 ; 6.856532293917235E10 ; 0.0
66 ; 4.432008003137278E7 ; 1.2060934029520738E9 ; 2.827774495803209E9 ; 6.977135977594336E10 ; 0.0
67 ; 4.4321884827416755E7 ; 1.2061501513708177E9 ; 2.8720945758345814E9 ; 7.097745317889543E10 ; 0.0
68 ; 4.4329324026366584E7 ; 1.2062070707494435E9 ; 2.9164164606619983E9 ; 7.218360333026625E10 ; 0.0
69 ; 4.433122797515665E7 ; 1.2062641502970076E9 ; 2.960745784688365E9 ; 7.33898104010157E10 ; 0.0
70 ; 4.434786066421589E7 ; 1.2063213796830575E9 ; 3.005077012663522E9 ; 7.459607455131271E10 ; 0.0
71 ; 4.434166046825662E7 ; 1.2063787490127532E9 ; 3.049424873327738E9 ; 7.580239593099577E10 ; 0.0
72 ; 4.433797749152915E7 ; 1.2064362488033996E9 ; 3.0937665337959943E9 ; 7.700877468000853E10 ; 0.0
73 ; 4.4348456067238204E7 ; 1.2064938699623175E9 ; 3.1381045112875233E9 ; 7.821521092881194E10 ; 0.0
74 ; 4.435710867248777E7 ; 1.2065516037659824E9 ; 3.1824529673547616E9 ; 7.942170479877425E10 ; 0.0
75 ; 4.435582331702436E7 ; 1.2066094418403609E9 ; 3.2268100760272493E9 ; 8.062825640254022E10 ; 0.0
76 ; 4.435168904525361E7 ; 1.2066673761423764E9 ; 3.2711658993442736E9 ; 8.183486584438058E10 ; 0.0
77 ; 4.435854334203835E7 ; 1.2067253989424438E9 ; 3.3155175883895273E9 ; 8.304153322052296E10 ; 0.0
78 ; 4.434705242744408E7 ; 1.2067835028080063E9 ; 3.3598761317315655E9 ; 8.424825861946541E10 ; 0.0
79 ; 4.4328752697531685E7 ; 1.206841680588026E9 ; 3.4042231841590095E9 ; 8.54550421222734E10 ; 0.0
80 ; 4.431638108739467E7 ; 1.2068999253983588E9 ; 3.448551936856541E9 ; 8.666188380286143E10 ; 0.0
81 ; 4.4303412001375064E7 ; 1.2069582306079774E9 ; 3.492868317943936E9 ; 8.78687837282598E10 ; 0.0
82 ; 4.428654189573079E7 ; 1.207016589825977E9 ; 3.537171729945311E9 ; 8.907574195886777E10 ; 0.0
83 ; 4.427311820644275E7 ; 1.2070749968893318E9 ; 3.581458271841042E9 ; 9.028275854869374E10 ; 0.0
84 ; 4.426472198548767E7 ; 1.2071334458513432E9 ; 3.625731390047485E9 ; 9.148983354558307E10 ; 0.0
85 ; 4.424519071544147E7 ; 1.2071919309707503E9 ; 3.6699961120329723E9 ; 9.269696699143442E10 ; 0.0
86 ; 4.422831397230264E7 ; 1.2072504467014577E9 ; 3.714241302748414E9 ; 9.390415892240517E10 ; 0.0
87 ; 4.421530714070773E7 ; 1.2073089876828408E9 ; 3.7584696167207165E9 ; 9.511140936910663E10 ; 0.0
88 ; 4.419935824540504E7 ; 1.2073675487306015E9 ; 3.8026849238614244E9 ; 9.631871835678947E10 ; 0.0
89 ; 4.418304775613582E7 ; 1.2074261248281333E9 ; 3.8468842821068296E9 ; 9.752608590552008E10 ; 0.0
90 ; 4.4164543889439635E7 ; 1.207484711118372E9 ; 3.8910673298629656E9 ; 9.873351203034822E10 ; 0.0
91 ; 4.4150048645462796E7 ; 1.2075433028960962E9 ; 3.935231873752405E9 ; 9.99409967414666E10 ; 0.0
92 ; 4.4126339371032916E7 ; 1.2076018956006594E9 ; 3.979381922397868E9 ; 1.011485400443627E11 ; 0.0
93 ; 4.4109541685768396E7 ; 1.2076604848091166E9 ; 4.023508261768901E9 ; 1.0235614193996336E11 ; 0.0
94 ; 4.408834271433388E7 ; 1.2077190662297328E9 ; 4.0676178034546695E9 ; 1.0356380242477248E11 ; 0.0
95 ; 4.406715140071882E7 ; 1.2077776356958432E9 ; 4.1117061461690035E9 ; 1.0477152149100221E11 ; 0.0
96 ; 4.404837484376012E7 ; 1.2078361891600497E9 ; 4.155773297569722E9 ; 1.0597929912669806E11 ; 0.0
97 ; 4.4032286377094395E7 ; 1.2078947226887271E9 ; 4.199821672413482E9 ; 1.0718713531585811E11 ; 0.0
98 ; 4.400959871477193E7 ; 1.207953232456828E9 ; 4.2438539587905765E9 ; 1.0839503003854683E11 ; 0.0
99 ; 4.398582609321828E7 ; 1.2080117147429652E9 ; 4.287863557505348E9 ; 1.0960298327100366E11 ; 0.0
100 ; 4.396402286503668E7 ; 1.2080701659247527E9 ; 4.331849383598566E9 ; 1.1081099498574663E11 ; 0.0
101 ; 4.394631571301566E7 ; 1.208128582474397E9 ; 4.375813406463603E9 ; 1.1201906515167139E11 ; 0.0
102 ; 4.391502652512214E7 ; 1.2081869609545178E9 ; 4.419759722176619E9 ; 1.1322719373414578E11 ; 0.0
103 ; 4.38993933585952E7 ; 1.2082452980141895E9 ; 4.46367474870174E9 ; 1.144353806951003E11 ; 0.0
104 ; 4.38755005653922E7 ; 1.2083035903851855E9 ; 4.507574142060335E9 ; 1.1564362599311449E11 ; 0.0
105 ; 4.384905838844766E7 ; 1.2083618348784199E9 ; 4.551449642625728E9 ; 1.1685192958349968E11 ; 0.0
106 ; 4.383085977520405E7 ; 1.2084200283805714E9 ; 4.595298701014175E9 ; 1.180602914183781E11 ; 0.0
107 ; 4.3798900988493875E7 ; 1.2084781678508775E9 ; 4.639129560789379E9 ; 1.1926871144675867E11 ; 0.0
108 ; 4.378157019137247E7 ; 1.208536250318096E9 ; 4.682928461777873E9 ; 1.2047718961460954E11 ; 0.0
109 ; 4.374829299430793E7 ; 1.2085942728776166E9 ; 4.726710031969246E9 ; 1.2168572586492764E11 ; 0.0
110 ; 4.372063594379599E7 ; 1.2086522326887193E9 ; 4.770458324963553E9 ; 1.2289432013780525E11 ; 0.0
111 ; 4.369811026828446E7 ; 1.2087101269719691E9 ; 4.81417896090735E9 ; 1.2410297237049397E11 ; 0.0
112 ; 4.366989178326981E7 ; 1.2087679530067415E9 ; 4.857877071175634E9 ; 1.2531168249746594E11 ; 0.0
113 ; 4.364458229235724E7 ; 1.2088257081288686E9 ; 4.901546962958904E9 ; 1.2652045045047269E11 ; 0.0
114 ; 4.361519629279655E7 ; 1.2088833897284014E9 ; 4.945191545251262E9 ; 1.2772927615860156E11 ; 0.0
115 ; 4.35886867954239E7 ; 1.2089409952474823E9 ; 4.988806741544058E9 ; 1.2893815954832997E11 ; 0.0
116 ; 4.3555568398747884E7 ; 1.2089985221783195E9 ; 5.032395428339481E9 ; 1.3014710054357745E11 ; 0.0
117 ; 4.35337024692612E7 ; 1.2090559680612605E9 ; 5.075950996738229E9 ; 1.3135609906575577E11 ; 0.0
118 ; 4.350161646513524E7 ; 1.2091133304829571E9 ; 5.11948469920749E9 ; 1.3256515503381703E11 ; 0.0
119 ; 4.346938143115265E7 ; 1.2091706070746186E9 ; 5.162986315672626E9 ; 1.3377426836429999E11 ; 0.0
120 ; 4.34333425382459E7 ; 1.2092277955103471E9 ; 5.206455697103778E9 ; 1.349834389713746E11 ; 0.0
121 ; 4.341007055910971E7 ; 1.2092848935055523E9 ; 5.249889039642024E9 ; 1.3619266676688495E11 ; 0.0
122 ; 4.33721140358755E7 ; 1.2093418988154411E9 ; 5.293299110201134E9 ; 1.374019516603905E11 ; 0.0
123 ; 4.3350441896107666E7 ; 1.2093988092335753E9 ; 5.336671224237009E9 ; 1.3861129355920593E11 ; 0.0
124 ; 4.3313503525579534E7 ; 1.2094556225904996E9 ; 5.380021666133117E9 ; 1.398206923684395E11 ; 0.0
125 ; 4.3272123193461925E7 ; 1.209512336752429E9 ; 5.423335169658696E9 ; 1.4103014799103E11 ; 0.0
126 ; 4.32472965469103E7 ; 1.209568949620001E9 ; 5.466607292852159E9 ; 1.4223966032778244E11 ; 0.0
127 ; 4.321612244441884E7 ; 1.20962545912708E9 ; 5.509854589399069E9 ; 1.4344922927740244E11 ; 0.0
128 ; 4.318077524826293E7 ; 1.20968186323962E9 ; 5.553070711843488E9 ; 1.446588547365295E11 ; 0.0
129 ; 4.315021642477307E7 ; 1.2097381599545763E9 ; 5.596251487091751E9 ; 1.4586853659976913E11 ; 0.0
130 ; 4.309833169963537E7 ; 1.2097943472988656E9 ; 5.639401703516524E9 ; 1.4707827475972372E11 ; 0.0
131 ; 4.305676348986985E7 ; 1.2098504233283758E9 ; 5.68250003521616E9 ; 1.4828806910702258E11 ; 0.0
132 ; 4.3005130297313794E7 ; 1.2099063861270158E9 ; 5.72555679870603E9 ; 1.4949791953035095E11 ; 0.0
133 ; 4.295782004076112E7 ; 1.2099622338058093E9 ; 5.768561929003344E9 ; 1.5070782591647797E11 ; 0.0
134 ; 4.290552146162139E7 ; 1.2100179645020292E9 ; 5.811519749044105E9 ; 1.5191778815028378E11 ; 0.0
135 ; 4.285158948502088E7 ; 1.210073576378368E9 ; 5.854425270505726E9 ; 1.531278061147858E11 ; 0.0
136 ; 4.281118283326457E7 ; 1.2101290676221445E9 ; 5.8972768599907465E9 ; 1.5433787969116415E11 ; 0.0
137 ; 4.275568891617359E7 ; 1.2101844364445477E9 ; 5.940088042824011E9 ; 1.555480087587863E11 ; 0.0
138 ; 4.270630708273844E7 ; 1.2102396810799084E9 ; 5.982843731740185E9 ; 1.5675819319523083E11 ; 0.0
139 ; 4.2646703056809545E7 ; 1.210294799785006E9 ; 6.025550038822924E9 ; 1.5796843287631073E11 ; 0.0
140 ; 4.260059665068456E7 ; 1.2103497908384044E9 ; 6.068196741879733E9 ; 1.5917872767609573E11 ; 0.0
141 ; 4.254743054479993E7 ; 1.2104046525398135E9 ; 6.110797338530417E9 ; 1.6038907746693414E11 ; 0.0
142 ; 4.2495733293091446E7 ; 1.210459383209479E9 ; 6.153344769075217E9 ; 1.6159948211947397E11 ; 0.0
143 ; 4.24450845706252E7 ; 1.210513981187601E9 ; 6.195840502368309E9 ; 1.6280994150268344E11 ; 0.0
144 ; 4.238563825226399E7 ; 1.210568444833771E9 ; 6.238285586938934E9 ; 1.6402045548387103E11 ; 0.0
145 ; 4.235623492699779E7 ; 1.2106227725264373E9 ; 6.280671225191198E9 ; 1.652310239287048E11 ; 0.0
146 ; 4.231496476694287E7 ; 1.2106769626623898E9 ; 6.3230274601181965E9 ; 1.6644164670123123E11 ; 0.0
147 ; 4.227809673151482E7 ; 1.2107310136562674E9 ; 6.365342424885139E9 ; 1.6765232366389362E11 ; 0.0
148 ; 4.223788011717336E7 ; 1.210784923940086E9 ; 6.407620521616654E9 ; 1.688630546775499E11 ; 0.0
149 ; 4.2202328354646504E7 ; 1.2108386919627821E9 ; 6.449858401733828E9 ; 1.7007383960149E11 ; 0.0
150 ; 4.215608253932218E7 ; 1.2108923161897817E9 ; 6.492060730088474E9 ; 1.7128467829345276E11 ; 0.0
151 ; 4.2128745077155665E7 ; 1.21094579510258E9 ; 6.534216812627796E9 ; 1.7249557060964255E11 ; 0.0
152 ; 4.2089546092076376E7 ; 1.2109991271983428E9 ; 6.576345557704952E9 ; 1.7370651640474512E11 ; 0.0
153 ; 4.204100284705408E7 ; 1.21105231098952E9 ; 6.618435103797029E9 ; 1.7491751553194345E11 ; 0.0
154 ; 4.200417884217434E7 ; 1.211105345003479E9 ; 6.660476106644083E9 ; 1.7612856784293298E11 ; 0.0
155 ; 4.1966401061895125E7 ; 1.2111582277821484E9 ; 6.702480285486258E9 ; 1.7733967318793646E11 ; 0.0
156 ; 4.1927390309640184E7 ; 1.2112109578816786E9 ; 6.744446686548153E9 ; 1.785508314157186E11 ; 0.0
157 ; 4.1888667621722504E7 ; 1.2112635338721151E9 ; 6.786374076857793E9 ; 1.7976204237360028E11 ; 0.0
158 ; 4.184956970952113E7 ; 1.2113159543370848E9 ; 6.828262744479515E9 ; 1.8097330590747238E11 ; 0.0
159 ; 4.1807158190912455E7 ; 1.2113682178734932E9 ; 6.870112314189036E9 ; 1.8218462186180948E11 ; 0.0
160 ; 4.176852344963014E7 ; 1.2114203230912366E9 ; 6.911919472379949E9 ; 1.8339599007968298E11 ; 0.0
161 ; 4.1732650765474245E7 ; 1.2114722686129217E9 ; 6.953687995829578E9 ; 1.8460741040277423E11 ; 0.0
162 ; 4.168698110198817E7 ; 1.2115240530736003E9 ; 6.995420646595053E9 ; 1.8581888267138715E11 ; 0.0
163 ; 4.164847728075276E7 ; 1.2115756751205087E9 ; 7.037107627697041E9 ; 1.8703040672446075E11 ; 0.0
164 ; 4.160356348959206E7 ; 1.211627133412823E9 ; 7.078756104977794E9 ; 1.8824198239958127E11 ; 0.0
165 ; 4.15663431569577E7 ; 1.2116784266214213E9 ; 7.120359668467385E9 ; 1.8945360953299408E11 ; 0.0
166 ; 4.152123375505553E7 ; 1.2117295534286537E9 ; 7.161926011624343E9 ; 1.906652879596155E11 ; 0.0
167 ; 4.1479331905948505E7 ; 1.2117805125281224E9 ; 7.203447245379398E9 ; 1.9187701751304416E11 ; 0.0
168 ; 4.144258661304827E7 ; 1.2118313026244712E9 ; 7.244926577285347E9 ; 1.930887980255723E11 ; 0.0
169 ; 4.139780399395813E7 ; 1.2118819224331813E9 ; 7.286369163898396E9 ; 1.9430062932819678E11 ; 0.0
170 ; 4.135036107696675E7 ; 1.2119323706803753E9 ; 7.327766967892354E9 ; 1.9551251125062994E11 ; 0.0
171 ; 4.131605825542739E7 ; 1.2119826461026297E9 ; 7.36911732896932E9 ; 1.9672444362131033E11 ; 0.0
172 ; 4.1274636542779945E7 ; 1.2120327474467924E9 ; 7.410433387224748E9 ; 1.9793642626741296E11 ; 0.0
173 ; 4.122627542956421E7 ; 1.2120826734698088E9 ; 7.451708023767528E9 ; 1.9914845901485974E11 ; 0.0
174 ; 4.1207991796563104E7 ; 1.2121324229385548E9 ; 7.492934299197092E9 ; 2.0036054168832956E11 ; 0.0
175 ; 4.118307517930262E7 ; 1.2121819946296735E9 ; 7.534142290993655E9 ; 2.0157267411126813E11 ; 0.0
176 ; 4.115409698231324E7 ; 1.2122313873294196E9 ; 7.575325366172957E9 ; 2.027848561058978E11 ; 0.0
177 ; 4.113178199682826E7 ; 1.2122805998335118E9 ; 7.616479463155271E9 ; 2.039970874932272E11 ; 0.0
178 ; 4.1102917164416716E7 ; 1.2123296309469867E9 ; 7.657611245152099E9 ; 2.0520936809306073E11 ; 0.0
179 ; 4.1081333155614555E7 ; 1.2123784794840593E9 ; 7.698714162316515E9 ; 2.0642169772400772E11 ; 0.0
180 ; 4.105258891867728E7 ; 1.2124271442679923E9 ; 7.73979549547213E9 ; 2.076340762034918E11 ; 0.0
181 ; 4.102384598399347E7 ; 1.2124756241309628E9 ; 7.780848084390807E9 ; 2.088465033477598E11 ; 0.0
182 ; 4.1005111008279204E7 ; 1.2125239179139433E9 ; 7.821871930374801E9 ; 2.1005897897189075E11 ; 0.0
183 ; 4.097840278546345E7 ; 1.2125720244665782E9 ; 7.86287704138308E9 ; 2.112715028898047E11 ; 0.0
184 ; 4.0944973785725E7 ; 1.212619942647071E9 ; 7.903855444168543E9 ; 2.1248407491427127E11 ; 0.0
185 ; 4.092650432943132E7 ; 1.2126676713220723E9 ; 7.9448004179542675E9 ; 2.1369669485691833E11 ; 0.0
186 ; 4.09013211668313E7 ; 1.212715209366574E9 ; 7.985726922283699E9 ; 2.1490936252824042E11 ; 0.0
187 ; 4.088193787416442E7 ; 1.212762555663806E9 ; 8.02662824345053E9 ; 2.16122077737607E11 ; 0.0
188 ; 4.084250982735829E7 ; 1.2128097091051373E9 ; 8.067510181324695E9 ; 2.173348402932708E11 ; 0.0
189 ; 4.083276551651069E7 ; 1.2128566685899796E9 ; 8.108352691152053E9 ; 2.1854765000237595E11 ; 0.0
190 ; 4.080013492664042E7 ; 1.2129034330256982E9 ; 8.149185456668564E9 ; 2.197605066709659E11 ; 0.0
191 ; 4.077623266776021E7 ; 1.2129500013275194E9 ; 8.189985591595204E9 ; 2.209734101039916E11 ; 0.0
192 ; 4.074794323502108E7 ; 1.2129963724184482E9 ; 8.230761824262964E9 ; 2.2218636010531912E11 ; 0.0
193 ; 4.072144013680259E7 ; 1.2130425452291856E9 ; 8.271509767497985E9 ; 2.2339935647773758E11 ; 0.0
194 ; 4.0695389897359535E7 ; 1.2130885186980484E9 ; 8.312231207634788E9 ; 2.2461239902296677E11 ; 0.0
195 ; 4.06656806039282E7 ; 1.2131342917708933E9 ; 8.352926597532147E9 ; 2.2582548754166483E11 ; 0.0
196 ; 4.0653111577522844E7 ; 1.2131798634010441E9 ; 8.393592278136076E9 ; 2.2703862183343573E11 ; 0.0
