CSV File for the Network on Day 16
1 - Minute m 
2 - Power Consumed at minute m 
3 - Power Produced at minute m 
4 - Energy Consumed since the beginning of the day 
5 - Energy Produced since the beginning of the day 
6 - Energy Lost since the beginning of the day 
 
0 ; 3.841386360937508E7 ; 6.318922757774429E8 ; 0.0 ; 0.0 ; 0.0
1 ; 3.845651869287476E7 ; 6.327780483402879E8 ; 3.841386360937508E7 ; 6.318922757774429E8 ; 0.0
2 ; 3.849502074322523E7 ; 6.355182777767302E8 ; 7.687038230224985E7 ; 1.2646703241177309E9 ; 0.0
3 ; 3.853954336999971E7 ; 6.401133286233835E8 ; 1.1536540304547508E8 ; 1.9001886018944612E9 ; 0.0
4 ; 3.8600896109915204E7 ; 6.465635983450782E8 ; 1.5390494641547477E8 ; 2.5403019305178447E9 ; 0.0
5 ; 3.8667524010687456E7 ; 6.548695080885675E8 ; 1.9250584252538997E8 ; 3.1868655288629227E9 ; 0.0
6 ; 3.8767538941213965E7 ; 6.650314870394572E8 ; 2.3117336653607744E8 ; 3.8417350369514904E9 ; 0.0
7 ; 3.888492756642942E7 ; 6.770499498031174E8 ; 2.699409054772914E8 ; 4.506766523990948E9 ; 0.0
8 ; 3.9069398553988755E7 ; 6.909252677409103E8 ; 3.0882583304372084E8 ; 5.183816473794065E9 ; 0.0
9 ; 3.93512244718133E7 ; 7.066577373235312E8 ; 3.478952315977096E8 ; 5.874741741534976E9 ; 0.0
10 ; 3.9786883771939754E7 ; 7.2424755066101E8 ; 3.872464560695229E8 ; 6.581399478858507E9 ; 0.0
11 ; 4.048048573689994E7 ; 7.436947743605682E8 ; 4.270333398414627E8 ; 7.305647029519517E9 ; 0.0
12 ; 4.158885421607221E7 ; 7.649993418149844E8 ; 4.675138255783626E8 ; 8.049341803880085E9 ; 0.0
13 ; 4.264863658186254E7 ; 7.881610609142284E8 ; 5.091026797944348E8 ; 8.81434114569507E9 ; 0.0
14 ; 4.2771021745711476E7 ; 8.131796351876054E8 ; 5.517513163762974E8 ; 9.602502206609299E9 ; 0.0
15 ; 4.2820376672359034E7 ; 8.400546932737525E8 ; 5.945223381220088E8 ; 1.0415681841796904E10 ; 0.0
16 ; 4.286723245042008E7 ; 8.687858205673006E8 ; 6.373427147943678E8 ; 1.1255736535070656E10 ; 0.0
17 ; 4.292399032607198E7 ; 8.993725878826429E8 ; 6.802099472447879E8 ; 1.2124522355637957E10 ; 0.0
18 ; 4.297334628900105E7 ; 9.318145740730264E8 ; 7.231339375708599E8 ; 1.30238949435206E10 ; 0.0
19 ; 4.302672682802437E7 ; 9.661113816736213E8 ; 7.661072838598609E8 ; 1.3955709517593626E10 ; 0.0
20 ; 4.307952887730625E7 ; 1.0022626461478131E9 ; 8.091340106878853E8 ; 1.4921820899267248E10 ; 0.0
21 ; 4.311965377344429E7 ; 1.0402680400654312E9 ; 8.522135395651915E8 ; 1.5924083545415062E10 ; 0.0
22 ; 4.317082959149541E7 ; 1.0801272737009158E9 ; 8.953331933386358E8 ; 1.6964351585480494E10 ; 0.0
23 ; 4.322128234674956E7 ; 1.1218400933635743E9 ; 9.385040229301312E8 ; 1.8044478859181408E10 ; 0.0
24 ; 4.3270642458315745E7 ; 1.1654062784688594E9 ; 9.817253052768807E8 ; 1.9166318952544983E10 ; 0.0
25 ; 4.331758172922526E7 ; 1.2029538834427972E9 ; 1.0249959477351965E9 ; 2.0331725231013844E10 ; 0.0
26 ; 4.3369254016407974E7 ; 1.203004030352821E9 ; 1.0683135294644217E9 ; 2.1534679114456642E10 ; 0.0
27 ; 4.341728883241561E7 ; 1.2030551926242862E9 ; 1.1116827834808297E9 ; 2.2737683144809464E10 ; 0.0
28 ; 4.3458994863719486E7 ; 1.2031072473823152E9 ; 1.1551000723132453E9 ; 2.394073833743375E10 ; 0.0
29 ; 4.350863679604006E7 ; 1.2031600884221563E9 ; 1.1985590671769648E9 ; 2.5143845584816067E10 ; 0.0
30 ; 4.356355946933736E7 ; 1.2032136237770758E9 ; 1.2420677039730048E9 ; 2.6347005673238224E10 ; 0.0
31 ; 4.360766078627035E7 ; 1.2032677736240454E9 ; 1.2856312634423423E9 ; 2.75502192970153E10 ; 0.0
32 ; 4.364611639964184E7 ; 1.2033224684952393E9 ; 1.3292389242286127E9 ; 2.8753487070639347E10 ; 0.0
33 ; 4.368911500284712E7 ; 1.2033776477587647E9 ; 1.3728850406282544E9 ; 2.9956809539134586E10 ; 0.0
34 ; 4.373336609150262E7 ; 1.2034332583321753E9 ; 1.4165741556311016E9 ; 3.1160187186893353E10 ; 0.0
35 ; 4.377210701833865E7 ; 1.2034892535948126E9 ; 1.4603075217226043E9 ; 3.236362044522553E10 ; 0.0
36 ; 4.381487213690077E7 ; 1.2035455924686472E9 ; 1.504079628740943E9 ; 3.3567109698820343E10 ; 0.0
37 ; 4.386083569056666E7 ; 1.2036022386411645E9 ; 1.5478945008778436E9 ; 3.4770655291288994E10 ; 0.0
38 ; 4.388919060339511E7 ; 1.2036591599076438E9 ; 1.5917553365684104E9 ; 3.597425752993016E10 ; 0.0
39 ; 4.39264042333373E7 ; 1.2037163276136165E9 ; 1.6356445271718056E9 ; 3.717791668983781E10 ; 0.0
40 ; 4.395487249283866E7 ; 1.2037737161813495E9 ; 1.679570931405143E9 ; 3.838163301745142E10 ; 0.0
41 ; 4.398655037286401E7 ; 1.203831302706818E9 ; 1.7235258038979816E9 ; 3.9585406733632774E10 ; 0.0
42 ; 4.401630412777502E7 ; 1.2038890666158764E9 ; 1.7675123542708457E9 ; 4.078923803633959E10 ; 0.0
43 ; 4.404963253340901E7 ; 1.2039469893702042E9 ; 1.8115286583986206E9 ; 4.199312710295547E10 ; 0.0
44 ; 4.407000795704944E7 ; 1.2040050542151852E9 ; 1.8555782909320297E9 ; 4.319707409232567E10 ; 0.0
45 ; 4.408928474807517E7 ; 1.2040632459631774E9 ; 1.899648298889079E9 ; 4.4401079146540855E10 ; 0.0
46 ; 4.411580588731417E7 ; 1.2041215508067188E9 ; 1.9437375836371543E9 ; 4.5605142392504036E10 ; 0.0
47 ; 4.4135076289338164E7 ; 1.2041799561571136E9 ; 1.9878533895244684E9 ; 4.680926394331075E10 ; 0.0
48 ; 4.415188939691451E7 ; 1.2042384505045872E9 ; 2.0319884658138065E9 ; 4.8013443899467865E10 ; 0.0
49 ; 4.417085231024599E7 ; 1.2042970232968202E9 ; 2.076140355210721E9 ; 4.921768234997245E10 ; 0.0
50 ; 4.418322711797028E7 ; 1.2043556648331692E9 ; 2.120311207520967E9 ; 5.042197937326927E10 ; 0.0
51 ; 4.419575476033135E7 ; 1.2044143661723332E9 ; 2.1644944346389375E9 ; 5.162633503810244E10 ; 0.0
52 ; 4.4208899241452545E7 ; 1.2044731190515423E9 ; 2.2086901893992686E9 ; 5.283074940427477E10 ; 0.0
53 ; 4.422052398102974E7 ; 1.2045319158156781E9 ; 2.2528990886407213E9 ; 5.403522252332632E10 ; 0.0
54 ; 4.423661081026971E7 ; 1.20459074935495E9 ; 2.297119612621751E9 ; 5.5239754439142E10 ; 0.0
55 ; 4.423665201375983E7 ; 1.2046496130499706E9 ; 2.3413562234320207E9 ; 5.644434518849695E10 ; 0.0
56 ; 4.425403554243757E7 ; 1.2047085007232485E9 ; 2.3855928754457803E9 ; 5.764899480154692E10 ; 0.0
57 ; 4.426252998360645E7 ; 1.2047674065962512E9 ; 2.429846910988218E9 ; 5.885370330227017E10 ; 0.0
58 ; 4.427249681569207E7 ; 1.2048263252513213E9 ; 2.474109440971824E9 ; 6.0058470708866425E10 ; 0.0
59 ; 4.42817058875676E7 ; 1.2048852515978255E9 ; 2.518381937787516E9 ; 6.1263297034117744E10 ; 0.0
60 ; 4.429118471484659E7 ; 1.2049441808420105E9 ; 2.5626636436750836E9 ; 6.246818228571557E10 ; 0.0
61 ; 4.429148595988761E7 ; 1.2050031084600997E9 ; 2.6069548283899302E9 ; 6.367312646655758E10 ; 0.0
62 ; 4.4306219459385656E7 ; 1.2050620301742463E9 ; 2.6512463143498178E9 ; 6.487812957501768E10 ; 0.0
63 ; 4.430958395139304E7 ; 1.205120941930993E9 ; 2.6955525338092036E9 ; 6.6083191605191925E10 ; 0.0
64 ; 4.432028914115302E7 ; 1.205179839881946E9 ; 2.7398621177605968E9 ; 6.728831254712292E10 ; 0.0
65 ; 4.433135600750197E7 ; 1.205238720366405E9 ; 2.7841824069017496E9 ; 6.849349238700486E10 ; 0.0
66 ; 4.433139326061479E7 ; 1.2052975798957229E9 ; 2.8285137629092517E9 ; 6.969873110737126E10 ; 0.0
67 ; 4.434011841889858E7 ; 1.2053564151392045E9 ; 2.8728451561698666E9 ; 7.090402868726698E10 ; 0.0
68 ; 4.4339401008761115E7 ; 1.2054152229113672E9 ; 2.917185274588765E9 ; 7.210938510240619E10 ; 0.0
69 ; 4.4346275856294475E7 ; 1.205474000160418E9 ; 2.961524675597526E9 ; 7.331480032531755E10 ; 0.0
70 ; 4.4350833361108676E7 ; 1.2055327439578133E9 ; 3.0058709514538207E9 ; 7.452027432547797E10 ; 0.0
71 ; 4.4352921305338256E7 ; 1.2055914514887877E9 ; 3.0502217848149295E9 ; 7.572580706943578E10 ; 0.0
72 ; 4.435746437866992E7 ; 1.2056501200437446E9 ; 3.094574706120268E9 ; 7.693139852092456E10 ; 0.0
73 ; 4.435806023433958E7 ; 1.2057087470104287E9 ; 3.1389321704989376E9 ; 7.81370486409683E10 ; 0.0
74 ; 4.436171800383249E7 ; 1.205767329866789E9 ; 3.1832902307332773E9 ; 7.934275738797873E10 ; 0.0
75 ; 4.436514682406161E7 ; 1.2058258661744726E9 ; 3.2276519487371097E9 ; 8.054852471784552E10 ; 0.0
76 ; 4.4360823793440826E7 ; 1.2058843535728765E9 ; 3.272017095561171E9 ; 8.175435058401999E10 ; 0.0
77 ; 4.43739103327824E7 ; 1.2059427897737122E9 ; 3.316377919354612E9 ; 8.296023493759286E10 ; 0.0
78 ; 4.435707516164152E7 ; 1.2060011725560274E9 ; 3.360751829687394E9 ; 8.416617772736658E10 ; 0.0
79 ; 4.434657291380125E7 ; 1.206059499761641E9 ; 3.4051089048490357E9 ; 8.53721788999226E10 ; 0.0
80 ; 4.433264913617548E7 ; 1.206117769290954E9 ; 3.449455477762837E9 ; 8.657823839968425E10 ; 0.0
81 ; 4.431822487346412E7 ; 1.206175979099101E9 ; 3.4937881268990126E9 ; 8.77843561689752E10 ; 0.0
82 ; 4.430608432647856E7 ; 1.20623412719241E9 ; 3.5381063517724767E9 ; 8.899053214807431E10 ; 0.0
83 ; 4.429367299887362E7 ; 1.206292211625144E9 ; 3.582412436098955E9 ; 9.019676627526672E10 ; 0.0
84 ; 4.4278233537588984E7 ; 1.2063502304964952E9 ; 3.626706109097829E9 ; 9.140305848689186E10 ; 0.0
85 ; 4.426168819875617E7 ; 1.206408181947814E9 ; 3.670984342635418E9 ; 9.260940871738835E10 ; 0.0
86 ; 4.424623679186858E7 ; 1.2064660641600485E9 ; 3.715246030834174E9 ; 9.381581689933617E10 ; 0.0
87 ; 4.423321718506546E7 ; 1.2065238753513799E9 ; 3.759492267626043E9 ; 9.502228296349622E10 ; 0.0
88 ; 4.422291568336503E7 ; 1.206581613775032E9 ; 3.803725484811108E9 ; 9.62288068388476E10 ; 0.0
89 ; 4.4197802742273405E7 ; 1.2066392777172437E9 ; 3.847948400494473E9 ; 9.743538845262262E10 ; 0.0
90 ; 4.418594183066632E7 ; 1.2066968654953907E9 ; 3.8921462032367463E9 ; 9.864202773033986E10 ; 0.0
91 ; 4.416424798220079E7 ; 1.2067543754562426E9 ; 3.936332145067413E9 ; 9.984872459583525E10 ; 0.0
92 ; 4.414751418967317E7 ; 1.206811805974343E9 ; 3.9804963930496135E9 ; 1.0105547897129149E11 ; 0.0
93 ; 4.413166494816753E7 ; 1.206869155450509E9 ; 4.0246439072392864E9 ; 1.0226229077726584E11 ; 0.0
94 ; 4.410902366618485E7 ; 1.2069264223104298E9 ; 4.0687755721874537E9 ; 1.0346915993271635E11 ; 0.0
95 ; 4.408779944140342E7 ; 1.2069836050033681E9 ; 4.1128845958536386E9 ; 1.0467608635502678E11 ; 0.0
96 ; 4.406737697361811E7 ; 1.2070407020009468E9 ; 4.156972395295042E9 ; 1.0588306996003015E11 ; 0.0
97 ; 4.405297103436493E7 ; 1.207097711796021E9 ; 4.20103977226866E9 ; 1.070901106620311E11 ; 0.0
98 ; 4.4024447103212476E7 ; 1.2071546329016242E9 ; 4.245092743303025E9 ; 1.0829720837382712E11 ; 0.0
99 ; 4.4003208463074446E7 ; 1.2072114638499875E9 ; 4.289117190406237E9 ; 1.0950436300672874E11 ; 0.0
100 ; 4.398284829508287E7 ; 1.207268203191619E9 ; 4.333120398869311E9 ; 1.1071157447057874E11 ; 0.0
101 ; 4.396965574787028E7 ; 1.2073248494944491E9 ; 4.377103247164394E9 ; 1.1191884267377036E11 ; 0.0
102 ; 4.393918309392269E7 ; 1.2073814013430276E9 ; 4.421072902912265E9 ; 1.131261675232648E11 ; 0.0
103 ; 4.3923505780697376E7 ; 1.2074378573377736E9 ; 4.465012086006187E9 ; 1.1433354892460783E11 ; 0.0
104 ; 4.389852484425596E7 ; 1.2074942160942745E9 ; 4.508935591786885E9 ; 1.155409867819456E11 ; 0.0
105 ; 4.386136155005934E7 ; 1.2075504762426271E9 ; 4.552834116631142E9 ; 1.1674848099803987E11 ; 0.0
106 ; 4.384840284361787E7 ; 1.2076066364268222E9 ; 4.596695478181201E9 ; 1.179560314742825E11 ; 0.0
107 ; 4.382743047543935E7 ; 1.2076626953041658E9 ; 4.640543881024818E9 ; 1.1916363811070932E11 ; 0.0
108 ; 4.380456777176746E7 ; 1.20771865154474E9 ; 4.6843713115002575E9 ; 1.2037130080601349E11 ; 0.0
109 ; 4.3773551843496285E7 ; 1.2077745038308892E9 ; 4.728175879272025E9 ; 1.2157901945755823E11 ; 0.0
110 ; 4.375188778862579E7 ; 1.2078302508567476E9 ; 4.771949431115521E9 ; 1.2278679396138911E11 ; 0.0
111 ; 4.372026968415718E7 ; 1.2078858913277857E9 ; 4.815701318904147E9 ; 1.2399462421224586E11 ; 0.0
112 ; 4.3689177658775926E7 ; 1.2079414239603934E9 ; 4.8594215885883045E9 ; 1.2520251010357365E11 ; 0.0
113 ; 4.366782456646927E7 ; 1.2079968474814777E9 ; 4.903110766247081E9 ; 1.2641045152753404E11 ; 0.0
114 ; 4.36407941389112E7 ; 1.2080521606280951E9 ; 4.94677859081355E9 ; 1.2761844837501552E11 ; 0.0
115 ; 4.360568573800814E7 ; 1.2081073621470962E9 ; 4.990419384952461E9 ; 1.2882650053564362E11 ; 0.0
116 ; 4.358310145966496E7 ; 1.2081624507947967E9 ; 5.03402507069047E9 ; 1.3003460789779071E11 ; 0.0
117 ; 4.3554061747913316E7 ; 1.2082174253366673E9 ; 5.077608172150135E9 ; 1.3124277034858551E11 ; 0.0
118 ; 4.352845895166344E7 ; 1.208272284547038E9 ; 5.121162233898048E9 ; 1.3245098777392218E11 ; 0.0
119 ; 4.349747756632413E7 ; 1.2083270272088234E9 ; 5.164690692849711E9 ; 1.3365926005846922E11 ; 0.0
120 ; 4.346651307035893E7 ; 1.2083816521132612E9 ; 5.208188170416036E9 ; 1.3486758708567804E11 ; 0.0
121 ; 4.3435238363947116E7 ; 1.208436158059667E9 ; 5.251654683486395E9 ; 1.360759687377913E11 ; 0.0
122 ; 4.3401194527191885E7 ; 1.2084905438552022E9 ; 5.295089921850342E9 ; 1.3728440489585097E11 ; 0.0
123 ; 4.3371256422914505E7 ; 1.2085448083146553E9 ; 5.338491116377534E9 ; 1.3849289543970618E11 ; 0.0
124 ; 4.333181261676113E7 ; 1.208598950260236E9 ; 5.381862372800448E9 ; 1.3970144024802084E11 ; 0.0
125 ; 4.330600841541334E7 ; 1.2086529685213788E9 ; 5.42519418541721E9 ; 1.4091003919828107E11 ; 0.0
126 ; 4.328056491584009E7 ; 1.2087068619345615E9 ; 5.468500193832623E9 ; 1.4211869216680246E11 ; 0.0
127 ; 4.324466599277918E7 ; 1.208760629343129E9 ; 5.511780758748463E9 ; 1.4332739902873703E11 ; 0.0
128 ; 4.3206364654891044E7 ; 1.2088142695971308E9 ; 5.555025424741241E9 ; 1.4453615965808017E11 ; 0.0
129 ; 4.3171427770209044E7 ; 1.2088677815531652E9 ; 5.598231789396132E9 ; 1.457449739276773E11 ; 0.0
130 ; 4.312790606607322E7 ; 1.2089211640742328E9 ; 5.641403217166342E9 ; 1.4695384170923047E11 ; 0.0
131 ; 4.308833794235551E7 ; 1.2089744160295992E9 ; 5.684531123232415E9 ; 1.481627628733047E11 ; 0.0
132 ; 4.304244178161904E7 ; 1.2090275362946622E9 ; 5.72761946117477E9 ; 1.493717372893343E11 ; 0.0
133 ; 4.29935077163036E7 ; 1.2090805237508302E9 ; 5.770661902956389E9 ; 1.5058076482562894E11 ; 0.0
134 ; 4.293547281931019E7 ; 1.2091333772854028E9 ; 5.813655410672693E9 ; 1.5178984534937976E11 ; 0.0
135 ; 4.288574557277584E7 ; 1.2091860957914639E9 ; 5.856590883492003E9 ; 1.5299897872666516E11 ; 0.0
136 ; 4.283889272179821E7 ; 1.2092386781677737E9 ; 5.899476629064779E9 ; 1.5420816482245663E11 ; 0.0
137 ; 4.279286495204411E7 ; 1.2092911233186724E9 ; 5.942315521786577E9 ; 1.5541740350062442E11 ; 0.0
138 ; 4.2736697378282115E7 ; 1.2093434301539855E9 ; 5.985108386738622E9 ; 1.5662669462394308E11 ; 0.0
139 ; 4.269025242894878E7 ; 1.2093955975889363E9 ; 6.027845084116904E9 ; 1.5783603805409708E11 ; 0.0
140 ; 4.26426279959975E7 ; 1.2094476245440621E9 ; 6.070535336545853E9 ; 1.59045433651686E11 ; 0.0
141 ; 4.258208734379047E7 ; 1.209499509945136E9 ; 6.11317796454185E9 ; 1.6025488127623007E11 ; 0.0
142 ; 4.2531716762662545E7 ; 1.2095512527230923E9 ; 6.15576005188564E9 ; 1.614643807861752E11 ; 0.0
143 ; 4.2480378125594765E7 ; 1.209602851813955E9 ; 6.198291768648303E9 ; 1.626739320388983E11 ; 0.0
144 ; 4.242749976090143E7 ; 1.2096543061587732E9 ; 6.240772146773898E9 ; 1.6388353489071225E11 ; 0.0
145 ; 4.238707612931052E7 ; 1.209705614703557E9 ; 6.2831996465348E9 ; 1.6509318919687103E11 ; 0.0
146 ; 4.2347098648897775E7 ; 1.2097567763992188E9 ; 6.32558672266411E9 ; 1.663028948115746E11 ; 0.0
147 ; 4.231567348949487E7 ; 1.2098077902015173E9 ; 6.367933821313008E9 ; 1.6751265158797382E11 ; 0.0
148 ; 4.228165298399176E7 ; 1.2098586550710046E9 ; 6.410249494802504E9 ; 1.6872245937817532E11 ; 0.0
149 ; 4.224641948021424E7 ; 1.209909369972977E9 ; 6.452531147786495E9 ; 1.6993231803324634E11 ; 0.0
150 ; 4.22021683893898E7 ; 1.209959933877426E9 ; 6.494777567266709E9 ; 1.7114222740321933E11 ; 0.0
151 ; 4.216197099212933E7 ; 1.2100103457589974E9 ; 6.536979735656099E9 ; 1.7235218733709674E11 ; 0.0
152 ; 4.212535587689905E7 ; 1.2100606045969467E9 ; 6.579141706648229E9 ; 1.7356219768285574E11 ; 0.0
153 ; 4.209134968716025E7 ; 1.2101107093751013E9 ; 6.621267062525127E9 ; 1.747722582874527E11 ; 0.0
154 ; 4.2050912559800774E7 ; 1.2101606590818236E9 ; 6.663358412212288E9 ; 1.759823689968278E11 ; 0.0
155 ; 4.2015614858067065E7 ; 1.210210452709975E9 ; 6.705409324772089E9 ; 1.771925296559096E11 ; 0.0
156 ; 4.19728599057875E7 ; 1.2102600892568848E9 ; 6.7474249396301565E9 ; 1.7840274010861957E11 ; 0.0
157 ; 4.193480008850587E7 ; 1.210309567724319E9 ; 6.789397799535944E9 ; 1.7961300019787646E11 ; 0.0
158 ; 4.189416241495742E7 ; 1.2103588871184514E9 ; 6.83133259962445E9 ; 1.8082330976560077E11 ; 0.0
159 ; 4.185125071173264E7 ; 1.210408046449837E9 ; 6.873226762039407E9 ; 1.820336686527192E11 ; 0.0
160 ; 4.182112673347597E7 ; 1.210457044733386E9 ; 6.91507801275114E9 ; 1.8324407669916904E11 ; 0.0
161 ; 4.177842313133225E7 ; 1.2105058809883413E9 ; 6.956899139484615E9 ; 1.8445453374390244E11 ; 0.0
162 ; 4.173449670918041E7 ; 1.210554554238256E9 ; 6.998677562615948E9 ; 1.8566503962489078E11 ; 0.0
163 ; 4.169578089302523E7 ; 1.210603063510973E9 ; 7.040412059325129E9 ; 1.8687559417912903E11 ; 0.0
164 ; 4.165958614768255E7 ; 1.2106514078386056E9 ; 7.082107840218154E9 ; 1.8808619724264E11 ; 0.0
165 ; 4.161137236162895E7 ; 1.2106995862575207E9 ; 7.123767426365836E9 ; 1.892968486504786E11 ; 0.0
166 ; 4.1569425956001855E7 ; 1.2107475978083203E9 ; 7.165378798727465E9 ; 1.905075482367361E11 ; 0.0
167 ; 4.153059604043268E7 ; 1.2107954415358286E9 ; 7.206948224683467E9 ; 1.9171829583454443E11 ; 0.0
168 ; 4.148914939004478E7 ; 1.210843116489077E9 ; 7.2484788207239E9 ; 1.9292909127608026E11 ; 0.0
169 ; 4.145378576602878E7 ; 1.2108906217212906E9 ; 7.289967970113945E9 ; 1.9413993439256934E11 ; 0.0
170 ; 4.140718888010964E7 ; 1.2109379562898772E9 ; 7.331421755879973E9 ; 1.9535082501429062E11 ; 0.0
171 ; 4.136455167000018E7 ; 1.2109851192564158E9 ; 7.372828944760083E9 ; 1.965617629705805E11 ; 0.0
172 ; 4.1320482470903665E7 ; 1.211032109686648E9 ; 7.414193496430083E9 ; 1.977727480898369E11 ; 0.0
173 ; 4.1281258380832255E7 ; 1.2110789266504662E9 ; 7.455513978900987E9 ; 1.9898378019952356E11 ; 0.0
174 ; 4.125922397039874E7 ; 1.211125569221909E9 ; 7.496795237281819E9 ; 2.00194859126174E11 ; 0.0
175 ; 4.124200047548813E7 ; 1.2111720364791522E9 ; 7.538054461252218E9 ; 2.0140598469539594E11 ; 0.0
176 ; 4.121251490247533E7 ; 1.2112183275045018E9 ; 7.579296461727706E9 ; 2.026171567318751E11 ; 0.0
177 ; 4.1191888283614025E7 ; 1.2112644413843899E9 ; 7.620508976630181E9 ; 2.038283750593796E11 ; 0.0
178 ; 4.116048651296055E7 ; 1.2113103772093682E9 ; 7.661700864913795E9 ; 2.05039639500764E11 ; 0.0
179 ; 4.1138918725694224E7 ; 1.211356134074105E9 ; 7.702861351426756E9 ; 2.062509498779734E11 ; 0.0
180 ; 4.1110172664543234E7 ; 1.2114017110773816E9 ; 7.744000270152451E9 ; 2.074623060120475E11 ; 0.0
181 ; 4.108535973964998E7 ; 1.2114471073220887E9 ; 7.785110442816994E9 ; 2.0867370772312488E11 ; 0.0
182 ; 4.1061917829522E7 ; 1.2114923219152238E9 ; 7.8261958025566435E9 ; 2.0988515483044696E11 ; 0.0
183 ; 4.1037452280668125E7 ; 1.2115373539678912E9 ; 7.867257720386166E9 ; 2.1109664715236218E11 ; 0.0
184 ; 4.1014551975822896E7 ; 1.2115822025952992E9 ; 7.908295172666834E9 ; 2.1230818450633008E11 ; 0.0
185 ; 4.098974689942785E7 ; 1.2116268669167604E9 ; 7.949309724642656E9 ; 2.1351976670892538E11 ; 0.0
186 ; 4.0955402128483444E7 ; 1.2116713460556908E9 ; 7.990299471542084E9 ; 2.1473139357584213E11 ; 0.0
187 ; 4.094076441078329E7 ; 1.2117156391396108E9 ; 8.0312548736705675E9 ; 2.1594306492189783E11 ; 0.0
188 ; 4.090882901866333E7 ; 1.211759745300146E9 ; 8.07219563808135E9 ; 2.1715478056103745E11 ; 0.0
189 ; 4.088049205882727E7 ; 1.2118036636730287E9 ; 8.113104467100014E9 ; 2.183665403063376E11 ; 0.0
190 ; 4.086023528887285E7 ; 1.2118473933980985E9 ; 8.153984959158841E9 ; 2.1957834397001062E11 ; 0.0
191 ; 4.083337277196181E7 ; 1.2118909336193056E9 ; 8.194845194447714E9 ; 2.2079019136340872E11 ; 0.0
192 ; 4.080715771550325E7 ; 1.2119342834847128E9 ; 8.235678567219676E9 ; 2.22002082297028E11 ; 0.0
193 ; 4.078278343075147E7 ; 1.2119774421464987E9 ; 8.27648572493518E9 ; 2.2321401658051273E11 ; 0.0
194 ; 4.075844934628934E7 ; 1.2120204087609599E9 ; 8.3172685083659315E9 ; 2.244259940226592E11 ; 0.0
195 ; 4.073537305507914E7 ; 1.2120631824885163E9 ; 8.358026957712221E9 ; 2.2563801443142017E11 ; 0.0
196 ; 4.071037936949478E7 ; 1.2121057624937134E9 ; 8.398762330767301E9 ; 2.268500776139087E11 ; 0.0
