CSV File for the Network on Day 308
1 - Minute m 
2 - Power Consumed at minute m 
3 - Power Produced at minute m 
4 - Energy Consumed since the beginning of the day 
5 - Energy Produced since the beginning of the day 
6 - Energy Lost since the beginning of the day 
 
0 ; 3.90633660531519E7 ; 6.379880089216787E8 ; 0.0 ; 0.0 ; 0.0
1 ; 3.910158200646505E7 ; 6.388977172013612E8 ; 3.90633660531519E7 ; 6.379880089216787E8 ; 0.0
2 ; 3.915454650471033E7 ; 6.416609492280763E8 ; 7.816494805961695E7 ; 1.2768857261230397E9 ; 0.0
3 ; 3.92064367464997E7 ; 6.462777165705214E8 ; 1.1731949456432728E8 ; 1.9185466753511162E9 ; 0.0
4 ; 3.92608541774542E7 ; 6.527480295370464E8 ; 1.56525931310827E8 ; 2.5648243919216375E9 ; 0.0
5 ; 3.9331458493464954E7 ; 6.610718971389112E8 ; 1.957867854882812E8 ; 3.217572421458684E9 ; 0.0
6 ; 3.9428689235091835E7 ; 6.712493270577768E8 ; 2.3511824398174614E8 ; 3.878644318597595E9 ; 0.0
7 ; 3.955473346973399E7 ; 6.832803256177094E8 ; 2.74546933216838E8 ; 4.549893645655372E9 ; 0.0
8 ; 3.9754371844615445E7 ; 6.971648977619306E8 ; 3.14101666686572E8 ; 5.233173971273081E9 ; 0.0
9 ; 4.002960600477812E7 ; 7.129030470345228E8 ; 3.538560385311875E8 ; 5.930338869035011E9 ; 0.0
10 ; 4.0473866236842915E7 ; 7.304947755672417E8 ; 3.9388564453596556E8 ; 6.643241916069534E9 ; 0.0
11 ; 4.1155815654846884E7 ; 7.499400840715599E8 ; 4.343595107728085E8 ; 7.373736691636776E9 ; 0.0
12 ; 4.22755775464133E7 ; 7.712389718360046E8 ; 4.755153264276554E8 ; 8.123676775708336E9 ; 0.0
13 ; 4.3335911738558196E7 ; 7.943914367288204E8 ; 5.177909039740687E8 ; 8.89491574754434E9 ; 0.0
14 ; 4.347140188284758E7 ; 8.19397475205925E8 ; 5.611268157126269E8 ; 9.68930718427316E9 ; 0.0
15 ; 4.352775329602648E7 ; 8.462570823240962E8 ; 6.045982175954745E8 ; 1.0508704659479086E10 ; 0.0
16 ; 4.3580382029218584E7 ; 8.749702517592689E8 ; 6.48125970891501E8 ; 1.1354961741803183E10 ; 0.0
17 ; 4.36153703641244E7 ; 9.055369758297807E8 ; 6.917063529207195E8 ; 1.2229931993562452E10 ; 0.0
18 ; 4.362873269458218E7 ; 9.379572455243728E8 ; 7.353217232848439E8 ; 1.3135468969392233E10 ; 0.0
19 ; 4.363618264908539E7 ; 9.722310505346946E8 ; 7.789504559794261E8 ; 1.4073426214916605E10 ; 0.0
20 ; 4.363304772680245E7 ; 1.0083583792920488E9 ; 8.225866386285115E8 ; 1.50456572654513E10 ; 0.0
21 ; 4.364203333843445E7 ; 1.0463392190080677E9 ; 8.66219686355314E8 ; 1.605401564474335E10 ; 0.0
22 ; 4.365093037245721E7 ; 1.0861735557189884E9 ; 9.098617196937485E8 ; 1.7100354863751417E10 ; 0.0
23 ; 4.3656229271043256E7 ; 1.127861374333177E9 ; 9.535126500662057E8 ; 1.8186528419470406E10 ; 0.0
24 ; 4.366940276439482E7 ; 1.1714026586815362E9 ; 9.97168879337249E8 ; 1.931438979380358E10 ; 0.0
25 ; 4.367119997250121E7 ; 1.2089256369595103E9 ; 1.0408382821016438E9 ; 2.048579245248512E10 ; 0.0
26 ; 4.367429412858061E7 ; 1.2089515780034814E9 ; 1.084509482074145E9 ; 2.169471808944463E10 ; 0.0
27 ; 4.368032102421601E7 ; 1.2089790784969332E9 ; 1.1281837762027256E9 ; 2.2903669667448112E10 ; 0.0
28 ; 4.368629859730362E7 ; 1.20900811850917E9 ; 1.1718640972269416E9 ; 2.4112648745945045E10 ; 0.0
29 ; 4.369034454908407E7 ; 1.2090386773138323E9 ; 1.2155503958242452E9 ; 2.5321656864454216E10 ; 0.0
30 ; 4.3687387739619434E7 ; 1.2090707334485326E9 ; 1.2592407403733292E9 ; 2.6530695541768047E10 ; 0.0
31 ; 4.369481358385974E7 ; 1.209104264774729E9 ; 1.3029281281129487E9 ; 2.773976627521658E10 ; 0.0
32 ; 4.3699846320285305E7 ; 1.209139248537497E9 ; 1.3466229416968083E9 ; 2.894887053999131E10 ; 0.0
33 ; 4.3693536863543764E7 ; 1.2091756614248843E9 ; 1.3903227880170937E9 ; 3.015800978852881E10 ; 0.0
34 ; 4.3696848464282945E7 ; 1.2092134796265504E9 ; 1.4340163248806374E9 ; 3.1367185449953693E10 ; 0.0
35 ; 4.369306887983185E7 ; 1.2092526788914225E9 ; 1.4777131733449204E9 ; 3.2576398929580242E10 ; 0.0
36 ; 4.3692127687882975E7 ; 1.2092932345841136E9 ; 1.5214062422247522E9 ; 3.3785651608471664E10 ; 0.0
37 ; 4.368490414236234E7 ; 1.2093351217398877E9 ; 1.565098369912635E9 ; 3.499494484305578E10 ; 0.0
38 ; 4.368213478012328E7 ; 1.2093783151179721E9 ; 1.6087832740549974E9 ; 3.620427996479567E10 ; 0.0
39 ; 4.366949956981237E7 ; 1.2094227892530456E9 ; 1.6524654088351207E9 ; 3.741365827991364E10 ; 0.0
40 ; 4.3663492155612595E7 ; 1.2094685185047593E9 ; 1.696134908404933E9 ; 3.862308106916669E10 ; 0.0
41 ; 4.3654631576777E7 ; 1.2095154771051693E9 ; 1.7397984005605457E9 ; 3.983254958767145E10 ; 0.0
42 ; 4.363636674871086E7 ; 1.2095636392039833E9 ; 1.7834530321373227E9 ; 4.104206506477662E10 ; 0.0
43 ; 4.362450545744412E7 ; 1.2096129789115496E9 ; 1.8270893988860335E9 ; 4.2251628703980606E10 ; 0.0
44 ; 4.361193871183353E7 ; 1.2096634703395338E9 ; 1.8707139043434777E9 ; 4.346124168289216E10 ; 0.0
45 ; 4.359198639313748E7 ; 1.2097150876392531E9 ; 1.9143258430553112E9 ; 4.467090515323169E10 ; 0.0
46 ; 4.357071086494575E7 ; 1.2097678050376537E9 ; 1.9579178294484487E9 ; 4.588062024087094E10 ; 0.0
47 ; 4.354707611361295E7 ; 1.2098215968709307E9 ; 2.0014885403133943E9 ; 4.709038804590859E10 ; 0.0
48 ; 4.351893904165485E7 ; 1.209876437615816E9 ; 2.0450356164270072E9 ; 4.8300209642779526E10 ; 0.0
49 ; 4.3500878801330104E7 ; 1.2099323019185596E9 ; 2.088554555468662E9 ; 4.951008608039534E10 ; 0.0
50 ; 4.346881597060308E7 ; 1.2099891646216493E9 ; 2.132055434269992E9 ; 5.0720018382313896E10 ; 0.0
51 ; 4.3441656007292524E7 ; 1.2100470007883277E9 ; 2.1755242502405953E9 ; 5.193000754693555E10 ; 0.0
52 ; 4.341441765849016E7 ; 1.210105785724962E9 ; 2.218965906247888E9 ; 5.314005454772388E10 ; 0.0
53 ; 4.337867847626127E7 ; 1.2101654950013447E9 ; 2.2623803239063783E9 ; 5.435016033344884E10 ; 0.0
54 ; 4.334801256470868E7 ; 1.2102261044689963E9 ; 2.3057590023826394E9 ; 5.556032582845018E10 ; 0.0
55 ; 4.331288541248736E7 ; 1.2102875902775557E9 ; 2.349107014947348E9 ; 5.6770551932919174E10 ; 0.0
56 ; 4.32867374670378E7 ; 1.2103499288893416E9 ; 2.3924199003598356E9 ; 5.798083952319673E10 ; 0.0
57 ; 4.325978372098845E7 ; 1.2104130970921721E9 ; 2.4357066378268733E9 ; 5.9191189452086075E10 ; 0.0
58 ; 4.321938274169724E7 ; 1.2104770720105362E9 ; 2.4789664215478616E9 ; 6.0401602549178246E10 ; 0.0
59 ; 4.3194903245467715E7 ; 1.2105418311152015E9 ; 2.522185804289559E9 ; 6.161207962118878E10 ; 0.0
60 ; 4.3160661000258625E7 ; 1.210607352231356E9 ; 2.5653807075350266E9 ; 6.2822621452303986E10 ; 0.0
61 ; 4.312581641774404E7 ; 1.2106736135453649E9 ; 2.608541368535285E9 ; 6.403322880453534E10 ; 0.0
62 ; 4.308748566432861E7 ; 1.2107405936102433E9 ; 2.651667184953029E9 ; 6.52439024180807E10 ; 0.0
63 ; 4.3058917702906124E7 ; 1.2108082713499165E9 ; 2.6947546706173577E9 ; 6.645464301169095E10 ; 0.0
64 ; 4.302150820912782E7 ; 1.2108766260623677E9 ; 2.737813588320264E9 ; 6.766545128304086E10 ; 0.0
65 ; 4.299172473333009E7 ; 1.2109456374217439E9 ; 2.780835096529392E9 ; 6.887632790910323E10 ; 0.0
66 ; 4.296140922289982E7 ; 1.2110152854795055E9 ; 2.823826821262722E9 ; 7.008727354652496E10 ; 0.0
67 ; 4.292010132273526E7 ; 1.211085550664696E9 ; 2.866788230485622E9 ; 7.129828883200447E10 ; 0.0
68 ; 4.288797199250686E7 ; 1.211156413783401E9 ; 2.9097083318083572E9 ; 7.250937438266917E10 ; 0.0
69 ; 4.284677733926832E7 ; 1.21122785601747E9 ; 2.952596303800864E9 ; 7.372053079645258E10 ; 0.0
70 ; 4.281508215446821E7 ; 1.211299858922567E9 ; 2.9954430811401324E9 ; 7.493175865247005E10 ; 0.0
71 ; 4.277167643209144E7 ; 1.2113724044256113E9 ; 3.0382581632946005E9 ; 7.614305851139261E10 ; 0.0
72 ; 4.274306441998619E7 ; 1.2114454748216705E9 ; 3.0810298397266917E9 ; 7.735443091581822E10 ; 0.0
73 ; 4.2704774022437274E7 ; 1.2115190527703605E9 ; 3.123772904146678E9 ; 7.85658763906399E10 ; 0.0
74 ; 4.266206970280721E7 ; 1.211593121291803E9 ; 3.166477678169115E9 ; 7.977739544341025E10 ; 0.0
75 ; 4.2628926079609916E7 ; 1.211667663762196E9 ; 3.2091397478719225E9 ; 8.098898856470206E10 ; 0.0
76 ; 4.258624655100994E7 ; 1.2117426639090385E9 ; 3.2517686739515324E9 ; 8.220065622846425E10 ; 0.0
77 ; 4.2550918762904115E7 ; 1.2118181058060532E9 ; 3.2943549205025425E9 ; 8.341239889237329E10 ; 0.0
78 ; 4.249610947495717E7 ; 1.2118939738678498E9 ; 3.3369058392654467E9 ; 8.462421699817935E10 ; 0.0
79 ; 4.2442404987220414E7 ; 1.2119702528443632E9 ; 3.3794019487404037E9 ; 8.58361109720472E10 ; 0.0
80 ; 4.2384302043562755E7 ; 1.2120469278151033E9 ; 3.421844353727624E9 ; 8.704808122489156E10 ; 0.0
81 ; 4.234238457098562E7 ; 1.2121239841832476E9 ; 3.464228655771187E9 ; 8.826012815270667E10 ; 0.0
82 ; 4.228493124012135E7 ; 1.2122014076696038E9 ; 3.5065710403421726E9 ; 8.947225213688991E10 ; 0.0
83 ; 4.222932721654941E7 ; 1.2122791843064733E9 ; 3.548855971582294E9 ; 9.068445354455951E10 ; 0.0
84 ; 4.2176085113733664E7 ; 1.212357300431435E9 ; 3.5910852987988434E9 ; 9.189673272886598E10 ; 0.0
85 ; 4.2120579072997436E7 ; 1.21243574268108E9 ; 3.633261383912577E9 ; 9.310909002929742E10 ; 0.0
86 ; 4.207313456321328E7 ; 1.2125144979847052E9 ; 3.6753819629855747E9 ; 9.43215257719785E10 ; 0.0
87 ; 4.201459397272976E7 ; 1.2125935535579982E9 ; 3.717455097548788E9 ; 9.553404026996321E10 ; 0.0
88 ; 4.195836583322801E7 ; 1.2126728968967197E9 ; 3.7594696915215178E9 ; 9.674663382352121E10 ; 0.0
89 ; 4.190275709220782E7 ; 1.2127525157704048E9 ; 3.801428057354746E9 ; 9.795930672041792E10 ; 0.0
90 ; 4.184634537104773E7 ; 1.2128323982160945E9 ; 3.843330814446954E9 ; 9.917205923618832E10 ; 0.0
91 ; 4.179227225573097E7 ; 1.212912532532108E9 ; 3.8851771598180013E9 ; 1.0038489163440442E11 ; 0.0
92 ; 4.173444224235337E7 ; 1.2129929072718706E9 ; 3.9269694320737324E9 ; 1.0159780416693652E11 ; 0.0
93 ; 4.1674135289038435E7 ; 1.2130735112378044E9 ; 3.968703874316086E9 ; 1.0281079707420839E11 ; 0.0
94 ; 4.1620439825504184E7 ; 1.2131543334752884E9 ; 4.0103780096051245E9 ; 1.040238705854462E11 ; 0.0
95 ; 4.155962691648792E7 ; 1.2132353632667027E9 ; 4.051998449430629E9 ; 1.0523702491892148E11 ; 0.0
96 ; 4.150209331158599E7 ; 1.2133165901255531E9 ; 4.0935580763471165E9 ; 1.0645026028218819E11 ; 0.0
97 ; 4.1440700304766744E7 ; 1.213398003790688E9 ; 4.1350601696587024E9 ; 1.0766357687231374E11 ; 0.0
98 ; 4.13835902095266E7 ; 1.2134795942206168E9 ; 4.176500869963469E9 ; 1.0887697487610443E11 ; 0.0
99 ; 4.1326047094286054E7 ; 1.2135613515879204E9 ; 4.2178844601729956E9 ; 1.1009045447032504E11 ; 0.0
100 ; 4.1259507401228875E7 ; 1.2136432662737708E9 ; 4.2592105072672815E9 ; 1.1130401582191296E11 ; 0.0
101 ; 4.1206489800165065E7 ; 1.2137253288625555E9 ; 4.30047001466851E9 ; 1.1251765908818674E11 ; 0.0
102 ; 4.114266493108135E7 ; 1.213807530136609E9 ; 4.341676504468676E9 ; 1.1373138441704929E11 ; 0.0
103 ; 4.1078563978020325E7 ; 1.2138898610710583E9 ; 4.382819169399757E9 ; 1.149451919471859E11 ; 0.0
104 ; 4.101871754068275E7 ; 1.213972312828775E9 ; 4.423897733377778E9 ; 1.1615908180825696E11 ; 0.0
105 ; 4.0961045284625515E7 ; 1.2140548767554421E9 ; 4.464916450918461E9 ; 1.1737305412108574E11 ; 0.0
106 ; 4.089358163703525E7 ; 1.2141375443747354E9 ; 4.505877496203086E9 ; 1.1858710899784119E11 ; 0.0
107 ; 4.083588623829904E7 ; 1.214220307383613E9 ; 4.546771077840121E9 ; 1.1980124654221593E11 ; 0.0
108 ; 4.077565788630919E7 ; 1.2143031576477225E9 ; 4.587606964078421E9 ; 1.2101546684959953E11 ; 0.0
109 ; 4.0704506414093874E7 ; 1.2143860871969142E9 ; 4.62838262196473E9 ; 1.2222977000724725E11 ; 0.0
110 ; 4.064004666531652E7 ; 1.2144690882208726E9 ; 4.669087128378824E9 ; 1.2344415609444417E11 ; 0.0
111 ; 4.0583652283165075E7 ; 1.2145521530648518E9 ; 4.709727175044141E9 ; 1.2465862518266504E11 ; 0.0
112 ; 4.051381222033739E7 ; 1.2146352742255244E9 ; 4.750310827327306E9 ; 1.2587317733572989E11 ; 0.0
113 ; 4.045320078412864E7 ; 1.2147184443469367E9 ; 4.790824639547644E9 ; 1.2708781260995541E11 ; 0.0
114 ; 4.0377503362129554E7 ; 1.214801656216569E9 ; 4.831277840331772E9 ; 1.2830253105430235E11 ; 0.0
115 ; 4.032704787505124E7 ; 1.2148849027615042E9 ; 4.871655343693901E9 ; 1.2951733271051892E11 ; 0.0
116 ; 4.0255158949583076E7 ; 1.2149681770446954E9 ; 4.911982391568953E9 ; 1.3073221761328043E11 ; 0.0
117 ; 4.0192828150265664E7 ; 1.2150514722613397E9 ; 4.952237550518536E9 ; 1.3194718579032512E11 ; 0.0
118 ; 4.012592515599157E7 ; 1.2151347817353463E9 ; 4.992430378668801E9 ; 1.3316223726258646E11 ; 0.0
119 ; 4.005870857883771E7 ; 1.215218098915906E9 ; 5.032556303824793E9 ; 1.3437737204432181E11 ; 0.0
120 ; 3.999337868830551E7 ; 1.2153014173741558E9 ; 5.07261501240363E9 ; 1.3559259014323772E11 ; 0.0
121 ; 3.9921861480417415E7 ; 1.2153847307999356E9 ; 5.112608391091936E9 ; 1.3680789156061188E11 ; 0.0
122 ; 3.985322769519141E7 ; 1.2154680329986384E9 ; 5.152530252572353E9 ; 1.380232762914118E11 ; 0.0
123 ; 3.978711701790216E7 ; 1.2155513178881493E9 ; 5.192383480267545E9 ; 1.3923874432441043E11 ; 0.0
124 ; 3.972272323092733E7 ; 1.215634579495872E9 ; 5.232170597285447E9 ; 1.4045429564229858E11 ; 0.0
125 ; 3.964446327502466E7 ; 1.2157178119558403E9 ; 5.271893320516375E9 ; 1.4166993022179446E11 ; 0.0
126 ; 3.9587688854893506E7 ; 1.215801009505915E9 ; 5.311537783791399E9 ; 1.428856480337503E11 ; 0.0
127 ; 3.9505802977450155E7 ; 1.2158841664850588E9 ; 5.351125472646293E9 ; 1.4410144904325623E11 ; 0.0
128 ; 3.943526247355594E7 ; 1.2159672773306947E9 ; 5.390631275623743E9 ; 1.4531733320974127E11 ; 0.0
129 ; 3.9368196189684585E7 ; 1.2160503365761378E9 ; 5.430066538097299E9 ; 1.4653330048707196E11 ; 0.0
130 ; 3.928951152744138E7 ; 1.2161333388481045E9 ; 5.4694347342869835E9 ; 1.477493508236481E11 ; 0.0
131 ; 3.921099273659307E7 ; 1.2162162788642945E9 ; 5.5087242458144245E9 ; 1.4896548416249622E11 ; 0.0
132 ; 3.911971854213831E7 ; 1.2162991514310446E9 ; 5.547935238551018E9 ; 1.501817004413605E11 ; 0.0
133 ; 3.90347601495096E7 ; 1.2163819514410496E9 ; 5.587054957093156E9 ; 1.5139799959279153E11 ; 0.0
134 ; 3.895456329949609E7 ; 1.2164646738711538E9 ; 5.626089717242665E9 ; 1.5261438154423257E11 ; 0.0
135 ; 3.886663576910729E7 ; 1.216547313780207E9 ; 5.665044280542161E9 ; 1.5383084621810373E11 ; 0.0
136 ; 3.878489884076533E7 ; 1.216629866306982E9 ; 5.703910916311268E9 ; 1.5504739353188394E11 ; 0.0
137 ; 3.870135843862767E7 ; 1.2167123266681573E9 ; 5.742695815152033E9 ; 1.5626402339819092E11 ; 0.0
138 ; 3.860456636449833E7 ; 1.2167946901563582E9 ; 5.78139717359066E9 ; 1.5748073572485907E11 ; 0.0
139 ; 3.852477627967144E7 ; 1.216876952138256E9 ; 5.820001739955158E9 ; 1.5869753041501544E11 ; 0.0
140 ; 3.8426987263308145E7 ; 1.216959108052726E9 ; 5.85852651623483E9 ; 1.599144073671537E11 ; 0.0
141 ; 3.834195610361255E7 ; 1.2170411534090571E9 ; 5.896953503498138E9 ; 1.6113136647520642E11 ; 0.0
142 ; 3.825172232335598E7 ; 1.217123083785219E9 ; 5.935295459601751E9 ; 1.6234840762861548E11 ; 0.0
143 ; 3.816805392674721E7 ; 1.2172048948261771E9 ; 5.973547181925107E9 ; 1.635655307124007E11 ; 0.0
144 ; 3.8080795403864205E7 ; 1.2172865822422614E9 ; 6.011715235851854E9 ; 1.6478273560722687E11 ; 0.0
145 ; 3.800643669972704E7 ; 1.2173681418075824E9 ; 6.049796031255718E9 ; 1.6600002218946912E11 ; 0.0
146 ; 3.79382018874823E7 ; 1.2174495693584936E9 ; 6.087802467955445E9 ; 1.672173903312767E11 ; 0.0
147 ; 3.7862639668513E7 ; 1.2175308607921023E9 ; 6.125740669842928E9 ; 1.684348399006352E11 ; 0.0
148 ; 3.779248597477864E7 ; 1.2176120120648227E9 ; 6.163603309511441E9 ; 1.696523707614273E11 ; 0.0
149 ; 3.77193889469656E7 ; 1.2176930191909738E9 ; 6.201395795486219E9 ; 1.7086998277349213E11 ; 0.0
150 ; 3.7648419250467636E7 ; 1.2177738782414176E9 ; 6.239115184433185E9 ; 1.720876757926831E11 ; 0.0
151 ; 3.75773246986078E7 ; 1.2178545853422408E9 ; 6.276763603683652E9 ; 1.7330544967092453E11 ; 0.0
152 ; 3.7506300000662446E7 ; 1.217935136673472E9 ; 6.314340928382259E9 ; 1.7452330425626678E11 ; 0.0
153 ; 3.742461529993438E7 ; 1.218015528467841E9 ; 6.351847228382922E9 ; 1.7574123939294025E11 ; 0.0
154 ; 3.7354300734983414E7 ; 1.218095757009571E9 ; 6.389271843682857E9 ; 1.7695925492140808E11 ; 0.0
155 ; 3.728053601082377E7 ; 1.218175818633212E9 ; 6.42662614441784E9 ; 1.7817735067841766E11 ; 0.0
156 ; 3.720866099984691E7 ; 1.2182557097225027E9 ; 6.463906680428664E9 ; 1.7939552649705087E11 ; 0.0
157 ; 3.7131200081510104E7 ; 1.2183354267092721E9 ; 6.501115341428511E9 ; 1.8061378220677338E11 ; 0.0
158 ; 3.706371819926197E7 ; 1.218414966072369E9 ; 6.538246541510021E9 ; 1.8183211763348264E11 ; 0.0
159 ; 3.698325444843733E7 ; 1.218494324336628E9 ; 6.575310259709283E9 ; 1.83050532599555E11 ; 0.0
160 ; 3.6913706895988725E7 ; 1.2185734980718596E9 ; 6.612293514157721E9 ; 1.8426902692389163E11 ; 0.0
161 ; 3.683400561175628E7 ; 1.2186524838918774E9 ; 6.649207221053709E9 ; 1.854876004219635E11 ; 0.0
162 ; 3.677248373392412E7 ; 1.2187312784535496E9 ; 6.686041226665465E9 ; 1.8670625290585538E11 ; 0.0
163 ; 3.6691118452669844E7 ; 1.218809878455879E9 ; 6.722813710399389E9 ; 1.8792498418430893E11 ; 0.0
164 ; 3.661647054202151E7 ; 1.218888280639111E9 ; 6.759504828852059E9 ; 1.891437940627648E11 ; 0.0
165 ; 3.6540320745510064E7 ; 1.218966481783868E9 ; 6.796121299394081E9 ; 1.903626823434039E11 ; 0.0
166 ; 3.646637794465495E7 ; 1.219044478710308E9 ; 6.832661620139591E9 ; 1.9158164882518777E11 ; 0.0
167 ; 3.6390318182918586E7 ; 1.21912226827731E9 ; 6.869127998084247E9 ; 1.9280069330389807E11 ; 0.0
168 ; 3.631261381633356E7 ; 1.2191998473816795E9 ; 6.905518316267165E9 ; 1.9401981557217538E11 ; 0.0
169 ; 3.624617955340122E7 ; 1.2192772129573832E9 ; 6.941830930083499E9 ; 1.9523901541955707E11 ; 0.0
170 ; 3.615774286451578E7 ; 1.2193543619747987E9 ; 6.9780771096369E9 ; 1.9645829263251447E11 ; 0.0
171 ; 3.608727305191744E7 ; 1.2194E9 ; 7.014234852501415E9 ; 1.9767764699448926E11 ; 0.0
172 ; 3.6018769426346526E7 ; 1.2194E9 ; 7.050322125553332E9 ; 1.9889704699448926E11 ; 0.0
173 ; 3.594070197850088E7 ; 1.2194E9 ; 7.086340894979679E9 ; 2.0011644699448926E11 ; 0.0
174 ; 3.587541586965889E7 ; 1.2194E9 ; 7.12228159695818E9 ; 2.0133584699448926E11 ; 0.0
175 ; 3.581399153874199E7 ; 1.2194E9 ; 7.158157012827839E9 ; 2.0255524699448926E11 ; 0.0
176 ; 3.575006412485481E7 ; 1.2194E9 ; 7.193971004366581E9 ; 2.0377464699448926E11 ; 0.0
177 ; 3.568324415580718E7 ; 1.2194E9 ; 7.229721068491436E9 ; 2.0499404699448926E11 ; 0.0
178 ; 3.5614060801797695E7 ; 1.2194E9 ; 7.2654043126472435E9 ; 2.0621344699448926E11 ; 0.0
179 ; 3.555539612680881E7 ; 1.2194E9 ; 7.301018373449041E9 ; 2.0743284699448926E11 ; 0.0
180 ; 3.55012913578037E7 ; 1.2194E9 ; 7.3365737695758505E9 ; 2.0865224699448926E11 ; 0.0
181 ; 3.5427701360069685E7 ; 1.2194E9 ; 7.372075060933654E9 ; 2.0987164699448926E11 ; 0.0
182 ; 3.5362393451332286E7 ; 1.2194E9 ; 7.407502762293723E9 ; 2.1109104699448926E11 ; 0.0
183 ; 3.5291682763782024E7 ; 1.2194E9 ; 7.442865155745055E9 ; 2.1231044699448926E11 ; 0.0
184 ; 3.5233138466837466E7 ; 1.2194E9 ; 7.478156838508837E9 ; 2.1352984699448926E11 ; 0.0
185 ; 3.517008625571473E7 ; 1.2194E9 ; 7.513389976975675E9 ; 2.1474924699448926E11 ; 0.0
186 ; 3.510309074535021E7 ; 1.2194E9 ; 7.548560063231389E9 ; 2.1596864699448926E11 ; 0.0
187 ; 3.504193338361627E7 ; 1.2194E9 ; 7.583663153976739E9 ; 2.1718804699448926E11 ; 0.0
188 ; 3.497885407879241E7 ; 1.2194E9 ; 7.618705087360355E9 ; 2.1840744699448926E11 ; 0.0
189 ; 3.491504004912789E7 ; 1.2194E9 ; 7.653683941439148E9 ; 2.1962684699448926E11 ; 0.0
190 ; 3.484717660084521E7 ; 1.2194E9 ; 7.688598981488276E9 ; 2.2084624699448926E11 ; 0.0
191 ; 3.478171910722707E7 ; 1.2194E9 ; 7.723446158089121E9 ; 2.2206564699448926E11 ; 0.0
192 ; 3.471995069354819E7 ; 1.2194E9 ; 7.758227877196348E9 ; 2.2328504699448926E11 ; 0.0
193 ; 3.465105673566079E7 ; 1.2194E9 ; 7.792947827889896E9 ; 2.2450444699448926E11 ; 0.0
194 ; 3.459254594632794E7 ; 1.2194E9 ; 7.827598884625557E9 ; 2.2572384699448926E11 ; 0.0
195 ; 3.4528137578080945E7 ; 1.2194E9 ; 7.862191430571885E9 ; 2.2694324699448926E11 ; 0.0
196 ; 3.445787290079278E7 ; 1.2194E9 ; 7.896719568149966E9 ; 2.2816264699448926E11 ; 0.0
197 ; 3.4394730407236956E7 ; 1.2194E9 ; 7.931177441050759E9 ; 2.2938204699448926E11 ; 0.0
198 ; 3.4332776402212664E7 ; 1.195561797774322E9 ; 7.965572171457996E9 ; 2.3060144699448926E11 ; 0.0
199 ; 3.426939812879303E7 ; 1.1182677228829002E9 ; 7.999904947860209E9 ; 2.3179700879226358E11 ; 0.0
