CSV File for the Network on Day 60
1 - Minute m 
2 - Power Consumed at minute m 
3 - Power Produced at minute m 
4 - Energy Consumed since the beginning of the day 
5 - Energy Produced since the beginning of the day 
6 - Energy Lost since the beginning of the day 
 
0 ; 3.843422594568606E7 ; 6.340648721566547E8 ; 0.0 ; 0.0 ; 0.0
1 ; 3.847168136956157E7 ; 6.349745226182705E8 ; 3.843422594568606E7 ; 6.340648721566547E8 ; 0.0
2 ; 3.8512842365329E7 ; 6.3773766155048E8 ; 7.690590731524763E7 ; 1.2690393947749252E9 ; 0.0
3 ; 3.8563695277113155E7 ; 6.42354313618439E8 ; 1.1541874968057662E8 ; 1.9067770563254051E9 ; 0.0
4 ; 3.8619098559998006E7 ; 6.488245010805969E8 ; 1.5398244495768976E8 ; 2.549131369943844E9 ; 0.0
5 ; 3.8690159010512345E7 ; 6.571482436144319E8 ; 1.9260154351768777E8 ; 3.197955871024441E9 ; 0.0
6 ; 3.877809069488129E7 ; 6.673255581580898E8 ; 2.3129170252820012E8 ; 3.8551041146388726E9 ; 0.0
7 ; 3.890014651110946E7 ; 6.79356458770815E8 ; 2.700697932230814E8 ; 4.522429672796963E9 ; 0.0
8 ; 3.908966161475916E7 ; 6.932409565148013E8 ; 3.089699397341909E8 ; 5.201786131567778E9 ; 0.0
9 ; 3.936674424842514E7 ; 7.089790593607541E8 ; 3.4805960134895E8 ; 5.895027088082579E9 ; 0.0
10 ; 3.980297987381996E7 ; 7.265707721190374E8 ; 3.8742634559737515E8 ; 6.604006147443333E9 ; 0.0
11 ; 4.049044977791484E7 ; 7.460160963977914E8 ; 4.272293254711951E8 ; 7.33057691956237E9 ; 0.0
12 ; 4.160071737243135E7 ; 7.673150305888755E8 ; 4.677197752491099E8 ; 8.076593015960161E9 ; 0.0
13 ; 4.266466133309698E7 ; 7.904675698819261E8 ; 5.0932049262154126E8 ; 8.843908046549036E9 ; 0.0
14 ; 4.2787570400347695E7 ; 8.154737063062379E8 ; 5.519851539546382E8 ; 9.634375616430962E9 ; 0.0
15 ; 4.283763438621673E7 ; 8.42333428799617E8 ; 5.94772724354986E8 ; 1.04498493227372E10 ; 0.0
16 ; 4.2887054469417796E7 ; 8.710467233028191E8 ; 6.376103587412027E8 ; 1.1292182751536818E10 ; 0.0
17 ; 4.293415420834229E7 ; 9.016135728776983E8 ; 6.804974132106205E8 ; 1.2163229474839636E10 ; 0.0
18 ; 4.298704922732252E7 ; 9.340339578467762E8 ; 7.234315674189628E8 ; 1.3064843047717335E10 ; 0.0
19 ; 4.303132073000598E7 ; 9.683078559516038E8 ; 7.664186166462853E8 ; 1.3998877005564112E10 ; 0.0
20 ; 4.307829681967606E7 ; 1.0044352425270249E9 ; 8.094499373762913E8 ; 1.4967184861515715E10 ; 0.0
21 ; 4.313379657183213E7 ; 1.0424160906883022E9 ; 8.525282341959673E8 ; 1.597162010404274E10 ; 0.0
22 ; 4.318538039227886E7 ; 1.0822503715279796E9 ; 8.956620307677995E8 ; 1.7014036194731043E10 ; 0.0
23 ; 4.323104946759358E7 ; 1.1239380543193793E9 ; 9.388474111600784E8 ; 1.809628656625902E10 ; 0.0
24 ; 4.328206882031444E7 ; 1.1674791067237153E9 ; 9.82078460627672E8 ; 1.92202246205784E10 ; 0.0
25 ; 4.33354236789688E7 ; 1.2050017403870747E9 ; 1.0253605294479864E9 ; 2.0387703727302116E10 ; 0.0
26 ; 4.337302702675825E7 ; 1.205027207367803E9 ; 1.0686959531269552E9 ; 2.159270546768919E10 ; 0.0
27 ; 4.343165815096308E7 ; 1.2050540874876869E9 ; 1.1120689801537135E9 ; 2.279773267505699E10 ; 0.0
28 ; 4.347731021719321E7 ; 1.2050823440080228E9 ; 1.1555006383046765E9 ; 2.4002786762544678E10 ; 0.0
29 ; 4.352245856888336E7 ; 1.2051119395764227E9 ; 1.1989779485218697E9 ; 2.52078691065527E10 ; 0.0
30 ; 4.357644974966595E7 ; 1.205142836404586E9 ; 1.242500407090753E9 ; 2.6412981046129124E10 ; 0.0
31 ; 4.361525389352351E7 ; 1.205174996435368E9 ; 1.286076856840419E9 ; 2.761812388253371E10 ; 0.0
32 ; 4.366166206045853E7 ; 1.2052083814982948E9 ; 1.3296921107339425E9 ; 2.8823298878969078E10 ; 0.0
33 ; 4.370346655538538E7 ; 1.2052429534529634E9 ; 1.373353772794401E9 ; 3.0028507260467373E10 ; 0.0
34 ; 4.374114547959119E7 ; 1.2052786743200095E9 ; 1.4170572393497863E9 ; 3.1233750213920338E10 ; 0.0
35 ; 4.378620851317258E7 ; 1.2053155063995671E9 ; 1.4607983848293774E9 ; 3.243902888824035E10 ; 0.0
36 ; 4.382339549552118E7 ; 1.2053534123773315E9 ; 1.50458459334255E9 ; 3.3644344394639915E10 ; 0.0
37 ; 4.386523877321442E7 ; 1.2053923554185047E9 ; 1.548407988838071E9 ; 3.484969780701725E10 ; 0.0
38 ; 4.389638214285306E7 ; 1.2054322992500508E9 ; 1.5922732276112854E9 ; 3.605509016243575E10 ; 0.0
39 ; 4.393443859434555E7 ; 1.205473208231783E9 ; 1.6361696097541385E9 ; 3.726052246168581E10 ; 0.0
40 ; 4.396408273807624E7 ; 1.205515047416898E9 ; 1.680104048348484E9 ; 3.846599566991759E10 ; 0.0
41 ; 4.399453404572258E7 ; 1.2055577826026301E9 ; 1.7240681310865602E9 ; 3.967151071733449E10 ; 0.0
42 ; 4.402325783272333E7 ; 1.2056013803717303E9 ; 1.7680626651322827E9 ; 4.087706849993712E10 ; 0.0
43 ; 4.405681355081015E7 ; 1.2056458081255012E9 ; 1.812085922965006E9 ; 4.2082669880308846E10 ; 0.0
44 ; 4.4075525019037485E7 ; 1.205691034109119E9 ; 1.8561427365158162E9 ; 4.328831568843435E10 ; 0.0
45 ; 4.410165117977926E7 ; 1.2057370274299695E9 ; 1.9002182615348537E9 ; 4.4494006722543465E10 ; 0.0
46 ; 4.412597994308241E7 ; 1.205783758069694E9 ; 1.944319912714633E9 ; 4.5699743749973434E10 ; 0.0
47 ; 4.413990552402456E7 ; 1.2058311968906317E9 ; 1.9884458926577153E9 ; 4.690552750804313E10 ; 0.0
48 ; 4.416107553192097E7 ; 1.2058793156372933E9 ; 2.0325857981817398E9 ; 4.811135870493376E10 ; 0.0
49 ; 4.417545311146468E7 ; 1.205928086933476E9 ; 2.0767468737136607E9 ; 4.931723802057105E10 ; 0.0
50 ; 4.419456406389046E7 ; 1.205977484275583E9 ; 2.1209223268251255E9 ; 5.052316610750453E10 ; 0.0
51 ; 4.420201289984398E7 ; 1.2060274820226707E9 ; 2.165116890889016E9 ; 5.172914359178011E10 ; 0.0
52 ; 4.421816590627749E7 ; 1.2060780553837025E9 ; 2.2093189037888603E9 ; 5.293517107380278E10 ; 0.0
53 ; 4.4227220957924634E7 ; 1.2061291804024482E9 ; 2.253537069695138E9 ; 5.4141249129186485E10 ; 0.0
54 ; 4.423689904992268E7 ; 1.2061808339404287E9 ; 2.297764290653063E9 ; 5.5347378309588936E10 ; 0.0
55 ; 4.42518893821484E7 ; 1.2062329936582613E9 ; 2.3420011897029853E9 ; 5.6553559143529366E10 ; 0.0
56 ; 4.426175321340783E7 ; 1.2062856379957235E9 ; 2.3862530790851336E9 ; 5.775979213718763E10 ; 0.0
57 ; 4.427058604978367E7 ; 1.2063387461508307E9 ; 2.4305148322985415E9 ; 5.896607777518335E10 ; 0.0
58 ; 4.427736742263902E7 ; 1.206392298058167E9 ; 2.4747854183483253E9 ; 6.017241652133418E10 ; 0.0
59 ; 4.428814686913595E7 ; 1.2064462743667028E9 ; 2.519062785770964E9 ; 6.137880881939235E10 ; 0.0
60 ; 4.429692929188039E7 ; 1.2065006564172883E9 ; 2.5633509326401E9 ; 6.258525509375905E10 ; 0.0
61 ; 4.430770024859719E7 ; 1.20655542621999E9 ; 2.6076478619319806E9 ; 6.379175575017634E10 ; 0.0
62 ; 4.4315412707590014E7 ; 1.206610566431422E9 ; 2.6519555621805778E9 ; 6.499831117639633E10 ; 0.0
63 ; 4.432260609508827E7 ; 1.20666606033219E9 ; 2.696270974888168E9 ; 6.620492174282775E10 ; 0.0
64 ; 4.432788872751736E7 ; 1.2067218918045588E9 ; 2.7405935809832563E9 ; 6.741158780315994E10 ; 0.0
65 ; 4.433661565012062E7 ; 1.2067780453104286E9 ; 2.7849214697107735E9 ; 6.86183096949645E10 ; 0.0
66 ; 4.434471605232972E7 ; 1.2068345058697E9 ; 2.829258085360894E9 ; 6.982508774027493E10 ; 0.0
67 ; 4.434841150097664E7 ; 1.2068912590390782E9 ; 2.8736028014132237E9 ; 7.103192224614464E10 ; 0.0
68 ; 4.435305886181292E7 ; 1.206948290891379E9 ; 2.9179512129142003E9 ; 7.223881350518372E10 ; 0.0
69 ; 4.4359818777734235E7 ; 1.2070055879953613E9 ; 2.9623042717760134E9 ; 7.344576179607509E10 ; 0.0
70 ; 4.436599142660808E7 ; 1.2070631373961253E9 ; 3.0066640905537477E9 ; 7.465276738407045E10 ; 0.0
71 ; 4.4366436722276285E7 ; 1.2071209265960972E9 ; 3.0510300819803557E9 ; 7.585983052146657E10 ; 0.0
72 ; 4.4366850705368266E7 ; 1.207178943536609E9 ; 3.095396518702632E9 ; 7.706695144806267E10 ; 0.0
73 ; 4.437435686432577E7 ; 1.207237176580091E9 ; 3.139763369408E9 ; 7.827413039159927E10 ; 0.0
74 ; 4.4383365355407275E7 ; 1.207295614492875E9 ; 3.184137726272326E9 ; 7.948136756817937E10 ; 0.0
75 ; 4.437832037311326E7 ; 1.2073542464286118E9 ; 3.228521091627733E9 ; 8.068866318267224E10 ; 0.0
76 ; 4.4380754625421375E7 ; 1.2074130619122958E9 ; 3.2728994120008464E9 ; 8.189601742910086E10 ; 0.0
77 ; 4.43818223188469E7 ; 1.207472050824894E9 ; 3.317280166626268E9 ; 8.310343049101315E10 ; 0.0
78 ; 4.437258972957459E7 ; 1.2075312033885672E9 ; 3.3616619889451146E9 ; 8.431090254183804E10 ; 0.0
79 ; 4.435348000942292E7 ; 1.207590510152473E9 ; 3.4060345786746893E9 ; 8.551843374522661E10 ; 0.0
80 ; 4.4345974589931354E7 ; 1.2076499619791384E9 ; 3.450388058684112E9 ; 8.672602425537907E10 ; 0.0
81 ; 4.433108216724654E7 ; 1.207709550031386E9 ; 3.4947340332740436E9 ; 8.793367421735822E10 ; 0.0
82 ; 4.4328125215601236E7 ; 1.207769265759801E9 ; 3.53906511544129E9 ; 8.91413837673896E10 ; 0.0
83 ; 4.430807157897049E7 ; 1.2078291008907204E9 ; 3.5833932406568913E9 ; 9.03491530331494E10 ; 0.0
84 ; 4.4291460892841265E7 ; 1.207889047414731E9 ; 3.627701312235862E9 ; 9.155698213404012E10 ; 0.0
85 ; 4.428069253364328E7 ; 1.207949097575653E9 ; 3.671992773128703E9 ; 9.276487118145485E10 ; 0.0
86 ; 4.426768509143937E7 ; 1.2080092438600047E9 ; 3.7162734656623464E9 ; 9.39728202790305E10 ; 0.0
87 ; 4.4247770513742924E7 ; 1.2080694789869127E9 ; 3.7605411507537856E9 ; 9.51808295228905E10 ; 0.0
88 ; 4.423380168896207E7 ; 1.2081297958984687E9 ; 3.8047889212675285E9 ; 9.638889900187741E10 ; 0.0
89 ; 4.422247958246322E7 ; 1.2081901877505069E9 ; 3.8490227229564905E9 ; 9.759702879777588E10 ; 0.0
90 ; 4.419657792960881E7 ; 1.2082506479037814E9 ; 3.893245202538954E9 ; 9.880521898552638E10 ; 0.0
91 ; 4.418281702042548E7 ; 1.208311169915541E9 ; 3.9374417804685626E9 ; 1.0001346963343016E11 ; 0.0
92 ; 4.416754257448239E7 ; 1.208371747531467E9 ; 3.981624597488988E9 ; 1.012217808033457E11 ; 0.0
93 ; 4.4147013582139984E7 ; 1.2084323746779776E9 ; 4.0257921400634704E9 ; 1.0243015255087717E11 ; 0.0
94 ; 4.412879440065198E7 ; 1.208493045454868E9 ; 4.0699391536456103E9 ; 1.0363858492555515E11 ; 0.0
95 ; 4.410905875726376E7 ; 1.20855375412828E9 ; 4.1140679480462623E9 ; 1.0484707797101001E11 ; 0.0
96 ; 4.409594058447588E7 ; 1.2086144951239855E9 ; 4.158177006803526E9 ; 1.0605563172513829E11 ; 0.0
97 ; 4.406707693675197E7 ; 1.208675263020967E9 ; 4.202272947388002E9 ; 1.0726424622026228E11 ; 0.0
98 ; 4.404715572098863E7 ; 1.2087360525452876E9 ; 4.2463400243247538E9 ; 1.0847292148328325E11 ; 0.0
99 ; 4.4027897301127836E7 ; 1.20879685856423E9 ; 4.2903871800457425E9 ; 1.0968165753582854E11 ; 0.0
100 ; 4.4005820956425615E7 ; 1.2088576760807004E9 ; 4.33441507734687E9 ; 1.1089045439439276E11 ; 0.0
101 ; 4.398704045276339E7 ; 1.2089185002278798E9 ; 4.378420898303296E9 ; 1.1209931207047346E11 ; 0.0
102 ; 4.3959583144702494E7 ; 1.2089793262641122E9 ; 4.42240793875606E9 ; 1.1330823057070134E11 ; 0.0
103 ; 4.394544221214068E7 ; 1.2090401495680218E9 ; 4.466367521900763E9 ; 1.1451720989696545E11 ; 0.0
104 ; 4.392347800743153E7 ; 1.2091009656338441E9 ; 4.510312964112904E9 ; 1.1572625004653348E11 ; 0.0
105 ; 4.389075624392815E7 ; 1.2091617700669682E9 ; 4.554236442120336E9 ; 1.1693535101216733E11 ; 0.0
106 ; 4.387202955642083E7 ; 1.2092225585796702E9 ; 4.598127198364264E9 ; 1.181445127822343E11 ; 0.0
107 ; 4.3850889239022434E7 ; 1.2092833269870393E9 ; 4.641999227920685E9 ; 1.1935373534081396E11 ; 0.0
108 ; 4.382362685092172E7 ; 1.2093440712030802E9 ; 4.685850117159707E9 ; 1.2056301866780101E11 ; 0.0
109 ; 4.380298531654798E7 ; 1.209404787236989E9 ; 4.729673744010629E9 ; 1.2177236273900409E11 ; 0.0
110 ; 4.377549575553274E7 ; 1.2094654711895895E9 ; 4.773476729327177E9 ; 1.2298176752624107E11 ; 0.0
111 ; 4.375985857530607E7 ; 1.209526119249927E9 ; 4.81725222508271E9 ; 1.2419123299743066E11 ; 0.0
112 ; 4.372819540335885E7 ; 1.2095867276920094E9 ; 4.861012083658016E9 ; 1.2540075911668059E11 ; 0.0
113 ; 4.370278961951695E7 ; 1.2096472928716898E9 ; 4.904740279061375E9 ; 1.266103458443726E11 ; 0.0
114 ; 4.36692614415287E7 ; 1.2097078112236843E9 ; 4.948443068680892E9 ; 1.278199931372443E11 ; 0.0
115 ; 4.364870108374172E7 ; 1.209768279258718E9 ; 4.99211233012242E9 ; 1.2902970094846797E11 ; 0.0
116 ; 4.362054071069534E7 ; 1.209828693560793E9 ; 5.035761031206162E9 ; 1.3023946922772668E11 ; 0.0
117 ; 4.358727636486789E7 ; 1.2098890507845752E9 ; 5.079381571916858E9 ; 1.3144929792128748E11 ; 0.0
118 ; 4.3561073997769564E7 ; 1.2099493476528916E9 ; 5.122968848281726E9 ; 1.3265918697207205E11 ; 0.0
119 ; 4.354037880521479E7 ; 1.2100095809543333E9 ; 5.166529922279495E9 ; 1.3386913631972495E11 ; 0.0
120 ; 4.350218717278416E7 ; 1.2100697475409606E9 ; 5.21007030108471E9 ; 1.3507914590067928E11 ; 0.0
121 ; 4.346767737744288E7 ; 1.2101298443261065E9 ; 5.253572488257494E9 ; 1.3628921564822023E11 ; 0.0
122 ; 4.344901313689521E7 ; 1.210189868282271E9 ; 5.297040165634937E9 ; 1.3749934549254633E11 ; 0.0
123 ; 4.3415392251808584E7 ; 1.210249816439102E9 ; 5.340489178771832E9 ; 1.3870953536082858E11 ; 0.0
124 ; 4.338266093236895E7 ; 1.2103096858814654E9 ; 5.383904571023641E9 ; 1.3991978517726767E11 ; 0.0
125 ; 4.334976830244895E7 ; 1.2103694737475915E9 ; 5.42728723195601E9 ; 1.4113009486314914E11 ; 0.0
126 ; 4.332187103444447E7 ; 1.2104291772272978E9 ; 5.470637000258459E9 ; 1.4234046433689673E11 ; 0.0
127 ; 4.328485661158689E7 ; 1.210488793560289E9 ; 5.513958871292904E9 ; 1.4355089351412402E11 ; 0.0
128 ; 4.3256800532584816E7 ; 1.210548320034522E9 ; 5.55724372790449E9 ; 1.4476138230768433E11 ; 0.0
129 ; 4.321742681572949E7 ; 1.210607753984644E9 ; 5.600500528437076E9 ; 1.4597193062771884E11 ; 0.0
130 ; 4.318070157123487E7 ; 1.2106670927904854E9 ; 5.643717955252805E9 ; 1.471825383817035E11 ; 0.0
131 ; 4.3128396098579526E7 ; 1.2107263338756247E9 ; 5.686898656824039E9 ; 1.48393205474494E11 ; 0.0
132 ; 4.308727591323564E7 ; 1.2107854747060022E9 ; 5.730027052922619E9 ; 1.496039318083696E11 ; 0.0
133 ; 4.303986981068632E7 ; 1.2108445127885957E9 ; 5.773114328835855E9 ; 1.508147172830756E11 ; 0.0
134 ; 4.298752973931131E7 ; 1.2109034456701443E9 ; 5.816154198646541E9 ; 1.520255617958642E11 ; 0.0
135 ; 4.293947300617447E7 ; 1.2109622709359286E9 ; 5.859141728385852E9 ; 1.5323646524153433E11 ; 0.0
136 ; 4.2890675826051794E7 ; 1.211020986208596E9 ; 5.902081201392026E9 ; 1.5444742751247028E11 ; 0.0
137 ; 4.283691050191287E7 ; 1.2110795891470323E9 ; 5.944971877218078E9 ; 1.5565844849867886E11 ; 0.0
138 ; 4.279478344526626E7 ; 1.2111380774452798E9 ; 5.987808787719991E9 ; 1.568695280878259E11 ; 0.0
139 ; 4.274096927540855E7 ; 1.211196448831498E9 ; 6.030603571165257E9 ; 1.5808066616527118E11 ; 0.0
140 ; 4.2689586373874225E7 ; 1.2112547010669618E9 ; 6.073344540440666E9 ; 1.592918626141027E11 ; 0.0
141 ; 4.2640234231573164E7 ; 1.2113128319451034E9 ; 6.116034126814541E9 ; 1.6050311731516965E11 ; 0.0
142 ; 4.25905694292922E7 ; 1.2113708392905881E9 ; 6.158674361046114E9 ; 1.6171443014711475E11 ; 0.0
143 ; 4.253440675546056E7 ; 1.2114287209584274E9 ; 6.201264930475407E9 ; 1.6292580098640533E11 ; 0.0
144 ; 4.248620350183484E7 ; 1.2114864748331246E9 ; 6.243799337230867E9 ; 1.6413722970736377E11 ; 0.0
145 ; 4.245154084833656E7 ; 1.2115440988278568E9 ; 6.286285540732702E9 ; 1.653487161821969E11 ; 0.0
146 ; 4.241745295004088E7 ; 1.2116015908836832E9 ; 6.328737081581038E9 ; 1.6656026028102475E11 ; 0.0
147 ; 4.2380545185277775E7 ; 1.2116589489687884E9 ; 6.371154534531079E9 ; 1.6777186187190845E11 ; 0.0
148 ; 4.234433763603778E7 ; 1.211716171077751E9 ; 6.413535079716357E9 ; 1.6898352082087723E11 ; 0.0
149 ; 4.231073758068228E7 ; 1.2117732552308416E9 ; 6.455879417352395E9 ; 1.70195236991955E11 ; 0.0
150 ; 4.226947257431126E7 ; 1.2118301994733467E9 ; 6.498190154933077E9 ; 1.7140701024718582E11 ; 0.0
151 ; 4.223617889505011E7 ; 1.2118870018749182E9 ; 6.540459627507388E9 ; 1.7261884044665918E11 ; 0.0
152 ; 4.219196634161448E7 ; 1.2119436605289464E9 ; 6.582695806402438E9 ; 1.738307274485341E11 ; 0.0
153 ; 4.215452488594066E7 ; 1.2120001735519574E9 ; 6.624887772744053E9 ; 1.7504267110906305E11 ; 0.0
154 ; 4.211553522203728E7 ; 1.212056539083033E9 ; 6.667042297629993E9 ; 1.7625467128261502E11 ; 0.0
155 ; 4.20840568803194E7 ; 1.2121127552832508E9 ; 6.709157832852031E9 ; 1.7746672782169806E11 ; 0.0
156 ; 4.2046002305660896E7 ; 1.2121688203351455E9 ; 6.75124188973235E9 ; 1.7867884057698132E11 ; 0.0
157 ; 4.200948854556552E7 ; 1.212224732442191E9 ; 6.793287892038012E9 ; 1.7989100939731647E11 ; 0.0
158 ; 4.196778574868961E7 ; 1.2122804898282988E9 ; 6.835297380583577E9 ; 1.8110323412975867E11 ; 0.0
159 ; 4.193271598464023E7 ; 1.212336090737339E9 ; 6.877265166332267E9 ; 1.8231551461958698E11 ; 0.0
160 ; 4.188722326710299E7 ; 1.2123915334326732E9 ; 6.919197882316907E9 ; 1.835278507103243E11 ; 0.0
161 ; 4.185820131419918E7 ; 1.2124468161967099E9 ; 6.96108510558401E9 ; 1.84740242243757E11 ; 0.0
162 ; 4.181807346875541E7 ; 1.2125019373304706E9 ; 7.00294330689821E9 ; 1.859526890599537E11 ; 0.0
163 ; 4.178144127444161E7 ; 1.2125568951531763E9 ; 7.044761380366965E9 ; 1.8716519099728418E11 ; 0.0
164 ; 4.173177564748323E7 ; 1.212611688001845E9 ; 7.086542821641407E9 ; 1.8837774789243735E11 ; 0.0
165 ; 4.169607241120155E7 ; 1.2126663142309065E9 ; 7.12827459728889E9 ; 1.8959035958043918E11 ; 0.0
166 ; 4.166851879635538E7 ; 1.212720772211829E9 ; 7.169970669700091E9 ; 1.9080302589467007E11 ; 0.0
167 ; 4.162124015876916E7 ; 1.2127750603327587E9 ; 7.211639188496447E9 ; 1.920157466668819E11 ; 0.0
168 ; 4.159109371888381E7 ; 1.2128291769981742E9 ; 7.253260428655216E9 ; 1.9322852172721466E11 ; 0.0
169 ; 4.153972846439533E7 ; 1.2128831206285515E9 ; 7.2948515223741E9 ; 1.9444135090421283E11 ; 0.0
170 ; 4.149828891197571E7 ; 1.2129368896600404E9 ; 7.336391250838495E9 ; 1.9565423402484137E11 ; 0.0
171 ; 4.145308016879222E7 ; 1.2129904825441535E9 ; 7.377889539750471E9 ; 1.968671709145014E11 ; 0.0
172 ; 4.1415757320653416E7 ; 1.2130438977474666E9 ; 7.419342619919263E9 ; 1.9808016139704556E11 ; 0.0
173 ; 4.138922581983891E7 ; 1.2130971337513251E9 ; 7.460758377239916E9 ; 1.9929320529479303E11 ; 0.0
174 ; 4.135658354989302E7 ; 1.213150189051568E9 ; 7.502147603059754E9 ; 2.0050630242854434E11 ; 0.0
175 ; 4.132926191761096E7 ; 1.2132030621582541E9 ; 7.543504186609648E9 ; 2.0171945261759592E11 ; 0.0
176 ; 4.130959474431692E7 ; 1.2132557515954025E9 ; 7.584833448527259E9 ; 2.0293265567975418E11 ; 0.0
177 ; 4.128022595531364E7 ; 1.2133082559007401E9 ; 7.626143043271576E9 ; 2.0414591143134958E11 ; 0.0
178 ; 4.125755066163271E7 ; 1.213360573625458E9 ; 7.66742326922689E9 ; 2.053592196872503E11 ; 0.0
179 ; 4.124008424566405E7 ; 1.2134127033339767E9 ; 7.708680819888522E9 ; 2.0657258026087576E11 ; 0.0
180 ; 4.120879066534383E7 ; 1.213464643603718E9 ; 7.749920904134186E9 ; 2.0778599296420975E11 ; 0.0
181 ; 4.118210395001742E7 ; 1.2135163930248861E9 ; 7.79112969479953E9 ; 2.0899945760781348E11 ; 0.0
182 ; 4.115737813884553E7 ; 1.213567950200257E9 ; 7.832311798749547E9 ; 2.1021297400083835E11 ; 0.0
183 ; 4.113391579266453E7 ; 1.213619313744971E9 ; 7.873469176888392E9 ; 2.114265419510386E11 ; 0.0
184 ; 4.110856766333239E7 ; 1.2136704822863371E9 ; 7.914603092681057E9 ; 2.1264016126478357E11 ; 0.0
185 ; 4.108825521864465E7 ; 1.2137214544636407E9 ; 7.955711660344389E9 ; 2.1385383174706992E11 ; 0.0
186 ; 4.10616026679724E7 ; 1.2137722289279594E9 ; 7.996799915563034E9 ; 2.1506755320153357E11 ; 0.0
187 ; 4.103343208504971E7 ; 1.2138228043419843E9 ; 8.037861518231007E9 ; 2.1628132543046152E11 ; 0.0
188 ; 4.101530198904111E7 ; 1.2138731793798468E9 ; 8.078894950316056E9 ; 2.174951482348035E11 ; 0.0
189 ; 4.098931447733733E7 ; 1.213923352726953E9 ; 8.119910252305098E9 ; 2.1870902141418335E11 ; 0.0
190 ; 4.096571371506579E7 ; 1.213973323079822E9 ; 8.160899566782434E9 ; 2.199229447669103E11 ; 0.0
191 ; 4.093593424741741E7 ; 1.214023089145929E9 ; 8.2018652804975E9 ; 2.2113691808999014E11 ; 0.0
192 ; 4.091726328620641E7 ; 1.214072649643557E9 ; 8.242801214744918E9 ; 2.2235094117913608E11 ; 0.0
193 ; 4.088394947943837E7 ; 1.214122003301648E9 ; 8.283718478031124E9 ; 2.2356501382877963E11 ; 0.0
194 ; 4.08624020936698E7 ; 1.214171148859665E9 ; 8.324602427510563E9 ; 2.2477913583208127E11 ; 0.0
195 ; 4.0834229434273556E7 ; 1.214220085067454E9 ; 8.365464829604233E9 ; 2.2599330698094092E11 ; 0.0
196 ; 4.080676413463802E7 ; 1.214268810685114E9 ; 8.4062990590385065E9 ; 2.2720752706600836E11 ; 0.0
197 ; 4.0793391246881366E7 ; 1.2143173244828672E9 ; 8.447105823173144E9 ; 2.2842179587669348E11 ; 0.0
