CSV File for the Network on Day 215
1 - Minute m 
2 - Power Consumed at minute m 
3 - Power Produced at minute m 
4 - Energy Consumed since the beginning of the day 
5 - Energy Produced since the beginning of the day 
6 - Energy Lost since the beginning of the day 
 
0 ; 483474.4532017315 ; 2.1061723293913102E8 ; 0.0 ; 0.0 ; 0.0
1 ; 488738.3890084395 ; 2.1092145380079395E8 ; 483474.4532017315 ; 2.1061723293913102E8 ; 356.14
2 ; 493071.6489153749 ; 2.1184336523956263E8 ; 972212.842210171 ; 4.2153868673992497E8 ; 712.28
3 ; 497201.36129790184 ; 2.133829848796789E8 ; 1465284.491125546 ; 6.333820519794877E8 ; 1068.42
4 ; 501252.6158860397 ; 2.155403293351935E8 ; 1962485.8524234476 ; 8.467650368591666E8 ; 1424.56
5 ; 506759.98671265587 ; 2.1831541388538343E8 ; 2463738.468309487 ; 1.0623053661943601E9 ; 1780.6999999999998
6 ; 512190.59478160396 ; 2.2170825214925867E8 ; 2970498.455022143 ; 1.2806207800797436E9 ; 2136.8399999999997
7 ; 517456.71865491173 ; 2.2571885577319652E8 ; 3482689.0498037473 ; 1.5023290322290022E9 ; 2492.9799999999996
8 ; 520962.9007738955 ; 2.3034723414690173E8 ; 4000145.768458659 ; 1.7280478880021987E9 ; 2849.1199999999994
9 ; 524356.8180750252 ; 2.355933941628877E8 ; 4521108.669232555 ; 1.9583951221491003E9 ; 3205.2599999999993
10 ; 529477.4804193387 ; 2.4145734003330684E8 ; 5045465.48730758 ; 2.193988516311988E9 ; 3561.399999999999
11 ; 532892.4828867307 ; 2.4793907317523342E8 ; 5574942.967726919 ; 2.435445856345295E9 ; 3917.539999999999
12 ; 536831.6409962632 ; 2.5503859217159313E8 ; 6107835.45061365 ; 2.6833849295205283E9 ; 4273.679999999999
13 ; 540750.5154815156 ; 2.6275589281023353E8 ; 6644667.091609913 ; 2.9384235216921215E9 ; 4629.82
14 ; 544653.702845373 ; 2.710909681986414E8 ; 7185417.607091429 ; 3.201179414502355E9 ; 4985.96
15 ; 547702.4340669325 ; 2.800438089471118E8 ; 7730071.309936802 ; 3.4722703827009964E9 ; 5342.1
16 ; 551412.1400351748 ; 2.896144034092676E8 ; 8277773.744003735 ; 3.752314191648108E9 ; 5698.240000000001
17 ; 554872.9891032556 ; 2.9980273796609867E8 ; 8829185.88403891 ; 4.0419285950573754E9 ; 6054.380000000001
18 ; 559035.3112364649 ; 3.1060879733832806E8 ; 9384058.873142166 ; 4.341731333023474E9 ; 6410.520000000001
19 ; 563621.0649947411 ; 3.2203256491190505E8 ; 9943094.184378631 ; 4.652340130361802E9 ; 6766.660000000002
20 ; 566098.5181954836 ; 3.3407402306258774E8 ; 1.0506715249373373E7 ; 4.974372695273707E9 ; 7122.800000000002
21 ; 570023.7452807173 ; 3.467331534676148E8 ; 1.1072813767568856E7 ; 5.308446718336295E9 ; 7478.940000000002
22 ; 574563.4177322596 ; 3.6000993739502376E8 ; 1.1642837512849573E7 ; 5.65517987180391E9 ; 7835.080000000003
23 ; 579494.8247632971 ; 3.7390435596391636E8 ; 1.2217400930581832E7 ; 6.015189809198934E9 ; 8191.220000000003
24 ; 582370.728998703 ; 3.8841639037162E8 ; 1.2796895755345128E7 ; 6.38909416516285E9 ; 8547.360000000002
25 ; 586145.5583993885 ; 4.009221038824072E8 ; 1.337926648434383E7 ; 6.777510555534471E9 ; 8903.500000000002
26 ; 588851.5141594125 ; 4.0092857405905414E8 ; 1.3965412042743219E7 ; 7.178432659416878E9 ; 9259.640000000001
27 ; 594730.9674997082 ; 4.0093532193751574E8 ; 1.4554263556902632E7 ; 7.579361233475932E9 ; 9615.78
28 ; 597169.5284613629 ; 4.009423306151402E8 ; 1.514899452440234E7 ; 7.980296555413448E9 ; 9971.92
29 ; 601058.068489172 ; 4.0094958390493953E8 ; 1.5746164052863704E7 ; 8.381238886028588E9 ; 10328.06
30 ; 603653.9883796776 ; 4.009570663800689E8 ; 1.6347222121352876E7 ; 8.782188469933527E9 ; 10684.199999999999
31 ; 606991.3166209107 ; 4.00964763398617E8 ; 1.6950876109732553E7 ; 9.183145536313597E9 ; 11040.339999999998
32 ; 612217.9125044029 ; 4.0097266111216295E8 ; 1.7557867426353466E7 ; 9.584110299712214E9 ; 11396.479999999998
33 ; 616297.5568288482 ; 4.009807464612771E8 ; 1.8170085338857867E7 ; 9.985082960824377E9 ; 11752.619999999997
34 ; 617921.4877999095 ; 4.00989007160803E8 ; 1.8786382895686716E7 ; 1.0386063707285654E10 ; 12108.759999999997
35 ; 621661.8781510902 ; 4.0099743167738414E8 ; 1.9404304383486625E7 ; 1.0787052714446457E10 ; 12464.899999999996
36 ; 626162.5734535645 ; 4.010060092013334E8 ; 2.0025966261637714E7 ; 1.118805014612384E10 ; 12821.039999999995
37 ; 628987.3163036035 ; 4.0101472961458963E8 ; 2.0652128835091278E7 ; 1.1589056155325174E10 ; 13177.179999999995
38 ; 630990.8347604354 ; 4.0102358345619017E8 ; 2.128111615139488E7 ; 1.1990070884939764E10 ; 13533.319999999994
39 ; 634715.4376294576 ; 4.010325618864027E8 ; 2.1912106986155316E7 ; 1.2391094468395954E10 ; 13889.459999999994
40 ; 638146.1814050734 ; 4.0104165665041804E8 ; 2.2546822423784774E7 ; 1.2792127030282356E10 ; 14245.599999999993
41 ; 641553.8630791588 ; 4.010508600422959E8 ; 2.318496860518985E7 ; 1.3193168686932774E10 ; 14601.739999999993
42 ; 643376.8074466978 ; 4.010601648696848E8 ; 2.382652246826901E7 ; 1.3594219546975069E10 ; 14957.879999999992
43 ; 646019.8969697364 ; 4.010695644196946E8 ; 2.446989927571571E7 ; 1.3995279711844753E10 ; 15314.019999999991
44 ; 647903.8563705495 ; 4.010790524261856E8 ; 2.5115919172685444E7 ; 1.4396349276264448E10 ; 15670.15999999999
45 ; 652399.251650471 ; 4.010886230386468E8 ; 2.5763823029055994E7 ; 1.4797428328690634E10 ; 16026.29999999999
46 ; 656411.8731793923 ; 4.01098270792765E8 ; 2.6416222280706465E7 ; 1.519851695172928E10 ; 16382.43999999999
47 ; 657628.6954538214 ; 4.0110799058272964E8 ; 2.7072634153885856E7 ; 1.5599615222522045E10 ; 16738.57999999999
48 ; 661775.7147294073 ; 4.011177776352767E8 ; 2.773026284933968E7 ; 1.6000723213104774E10 ; 17094.71999999999
49 ; 661869.3143981464 ; 4.011276274854447E8 ; 2.8392038564069085E7 ; 1.6401840990740051E10 ; 17450.85999999999
50 ; 665896.4711267266 ; 4.0113753595399165E8 ; 2.9053907878467232E7 ; 1.6802968618225496E10 ; 17806.99999999999
51 ; 667711.0450974418 ; 4.0114749912640655E8 ; 2.971980434959396E7 ; 1.720410615417949E10 ; 18163.13999999999
52 ; 668670.9894625342 ; 4.0115751333343995E8 ; 3.03875153946914E7 ; 1.7605253653305897E10 ; 18519.279999999988
53 ; 669740.2358229979 ; 4.011675751330697E8 ; 3.1056186384153936E7 ; 1.8006411166639336E10 ; 18875.419999999987
54 ; 674114.496245761 ; 4.011776812938167E8 ; 3.1725926619976934E7 ; 1.8407578741772404E10 ; 19231.559999999987
55 ; 673543.7021128238 ; 4.011878287793242E8 ; 3.2400041116222695E7 ; 1.880875642306622E10 ; 19587.699999999986
56 ; 678001.6209811718 ; 4.011980147341154E8 ; 3.307358481833552E7 ; 1.9209944251845543E10 ; 19943.839999999986
57 ; 679917.1741529631 ; 4.0120823647044635E8 ; 3.375158643931669E7 ; 1.961114226657966E10 ; 20299.979999999985
58 ; 681403.360432806 ; 4.012184914561745E8 ; 3.443150361346965E7 ; 2.0012350503050106E10 ; 20656.119999999984
59 ; 685394.007363186 ; 4.0122877730356723E8 ; 3.511290697390246E7 ; 2.041356899450628E10 ; 21012.259999999984
60 ; 687031.0211440226 ; 4.012390917589793E8 ; 3.579830098126564E7 ; 2.0814797771809845E10 ; 21368.399999999983
61 ; 690911.3488932895 ; 4.012494326933307E8 ; 3.648533200240967E7 ; 2.1216036863568825E10 ; 21724.539999999983
62 ; 691666.9404713219 ; 4.012597980933233E8 ; 3.717624335130296E7 ; 2.1617286296262154E10 ; 22080.679999999982
63 ; 694235.6267849124 ; 4.012701860533373E8 ; 3.786791029177428E7 ; 2.2018546094355476E10 ; 22436.81999999998
64 ; 697079.8193668748 ; 4.0128059476795316E8 ; 3.856214591855919E7 ; 2.2419816280408813E10 ; 22792.95999999998
65 ; 698017.3384997965 ; 4.0129102252504885E8 ; 3.9259225737926066E7 ; 2.2821096875176765E10 ; 23149.09999999998
66 ; 699294.0332725941 ; 4.013014676994262E8 ; 3.9957243076425865E7 ; 2.3222387897701813E10 ; 23505.23999999998
67 ; 702678.2750909782 ; 4.013119287469231E8 ; 4.065653710969846E7 ; 2.3623689365401237E10 ; 23861.37999999998
68 ; 704509.3017204886 ; 4.013224041989731E8 ; 4.135921538478944E7 ; 2.402500129414816E10 ; 24217.51999999998
69 ; 706573.0914372974 ; 4.0133289265757513E8 ; 4.206372468650992E7 ; 2.4426323698347134E10 ; 24573.659999999978
70 ; 707955.862527746 ; 4.0134339279064107E8 ; 4.277029777794722E7 ; 2.4827656591004707E10 ; 24929.799999999977
71 ; 710562.7125604651 ; 4.0135390332769E8 ; 4.347825364047496E7 ; 2.522899998379535E10 ; 25285.939999999977
72 ; 712094.6459564972 ; 4.0136442305586195E8 ; 4.418881635303543E7 ; 2.563035388712304E10 ; 25642.079999999976
73 ; 713035.2019437086 ; 4.013749508162245E8 ; 4.490091099899192E7 ; 2.60317183101789E10 ; 25998.219999999976
74 ; 715724.6196566479 ; 4.0138548550034994E8 ; 4.561394620093563E7 ; 2.6433093260995125E10 ; 26354.359999999975
75 ; 715681.6160269084 ; 4.013960260471401E8 ; 4.632967082059228E7 ; 2.6834478746495476E10 ; 26710.499999999975
76 ; 718428.9662220855 ; 4.014065714398808E8 ; 4.7045352436619185E7 ; 2.7235874772542618E10 ; 27066.639999999974
77 ; 718943.5894691118 ; 4.01417120703506E8 ; 4.776378140284127E7 ; 2.76372813439825E10 ; 27422.779999999973
78 ; 722048.8034775412 ; 4.014276729020567E8 ; 4.848272499231038E7 ; 2.8038698464686005E10 ; 27778.919999999973
79 ; 722367.9894056037 ; 4.0143822713631874E8 ; 4.920477379578792E7 ; 2.8440126137588062E10 ; 28135.059999999972
80 ; 724848.8339418848 ; 4.0144878254162526E8 ; 4.9927141785193525E7 ; 2.884156436472438E10 ; 28491.19999999997
81 ; 725838.6709629276 ; 4.014593382858118E8 ; 5.065199061913541E7 ; 2.9243013147266006E10 ; 28847.33999999997
82 ; 728847.7680601522 ; 4.0146989356731176E8 ; 5.137782929009834E7 ; 2.964447248555182E10 ; 29203.47999999997
83 ; 731003.176794927 ; 4.014804476133821E8 ; 5.2106677058158495E7 ; 3.004594237911913E10 ; 29559.61999999997
84 ; 732307.189700094 ; 4.014909996784488E8 ; 5.283768023495342E7 ; 3.044742282673251E10 ; 29915.75999999997
85 ; 734540.261870559 ; 4.015015490425634E8 ; 5.3569987424653515E7 ; 3.0848913826410957E10 ; 30271.89999999997
86 ; 736129.7068884018 ; 4.015120950099623E8 ; 5.430452768652407E7 ; 3.125041537545352E10 ; 30628.039999999968
87 ; 736833.3774872174 ; 4.0152263690772146E8 ; 5.504065739341247E7 ; 3.1651927470463486E10 ; 30984.179999999968
88 ; 737609.9337956207 ; 4.0153317408449847E8 ; 5.577749077089969E7 ; 3.205345010737121E10 ; 31340.319999999967
89 ; 739102.4961710513 ; 4.015437059093572E8 ; 5.6515100704695314E7 ; 3.2454983281455708E10 ; 31696.459999999966
90 ; 740719.1977310167 ; 4.0155423177066743E8 ; 5.7254203200866364E7 ; 3.2856526987365067E10 ; 32052.599999999966
91 ; 742117.998348172 ; 4.015647510750753E8 ; 5.799492239859738E7 ; 3.3258081219135735E10 ; 32408.739999999965
92 ; 744411.460755547 ; 4.0157526324653876E8 ; 5.873704039694555E7 ; 3.365964597021081E10 ; 32764.879999999965
93 ; 745136.7757649738 ; 4.015857677254233E8 ; 5.94814518577011E7 ; 3.406122123345735E10 ; 33121.01999999997
94 ; 747208.7223087692 ; 4.01596263967655E8 ; 6.022658863346607E7 ; 3.446280700118278E10 ; 33477.15999999997
95 ; 748046.6694859957 ; 4.0160675144392496E8 ; 6.097379735577484E7 ; 3.486440326515043E10 ; 33833.29999999997
96 ; 747784.9076470012 ; 4.01617229638943E8 ; 6.1721844025260836E7 ; 3.526601001659435E10 ; 34189.439999999966
97 ; 750025.1592719591 ; 4.016276980507368E8 ; 6.2469628932907835E7 ; 3.56676272462333E10 ; 34545.579999999965
98 ; 751007.8512261226 ; 4.0163815618999314E8 ; 6.321965409217979E7 ; 3.6069254944284035E10 ; 34901.719999999965
99 ; 751645.2752563108 ; 4.0164860357943857E8 ; 6.397066194340591E7 ; 3.647089310047403E10 ; 35257.859999999964
100 ; 752018.7256795439 ; 4.016590397532573E8 ; 6.4722307218662225E7 ; 3.687254170405347E10 ; 35613.99999999996
101 ; 754719.7002598292 ; 4.016694642565427E8 ; 6.547432594434177E7 ; 3.7274200743806725E10 ; 35970.13999999996
102 ; 757261.4409971122 ; 4.016798766447815E8 ; 6.62290456446016E7 ; 3.767587020806327E10 ; 36326.27999999996
103 ; 756558.5920364117 ; 4.016902764833673E8 ; 6.698630708559871E7 ; 3.807755008470805E10 ; 36682.41999999996
104 ; 759246.6930819402 ; 4.0170066334714305E8 ; 6.774286567763512E7 ; 3.847924036119142E10 ; 37038.55999999996
105 ; 760094.8257603196 ; 4.017110368199682E8 ; 6.850211237071706E7 ; 3.888094102453857E10 ; 37394.69999999996
106 ; 763026.2657798883 ; 4.0172139649431205E8 ; 6.926220719647738E7 ; 3.9282652061358536E10 ; 37750.83999999996
107 ; 762856.4886247516 ; 4.017317419708684E8 ; 7.002523346225727E7 ; 3.9684373457852844E10 ; 38106.97999999996
108 ; 763701.712243311 ; 4.0174207285819304E8 ; 7.078808995088202E7 ; 4.0086105199823715E10 ; 38463.11999999996
109 ; 764158.3181796746 ; 4.0175238877236044E8 ; 7.155179166312532E7 ; 4.048784727268191E10 ; 38819.25999999996
110 ; 764487.9705904938 ; 4.0176268933663964E8 ; 7.2315949981305E7 ; 4.088959966145427E10 ; 39175.39999999996
111 ; 766291.924625224 ; 4.017729741811881E8 ; 7.308043795189549E7 ; 4.129136235079091E10 ; 39531.53999999996
112 ; 768141.3242357632 ; 4.017832429427614E8 ; 7.384672987652071E7 ; 4.16931353249721E10 ; 39887.67999999996
113 ; 769166.3757308908 ; 4.0179349526443934E8 ; 7.461487120075648E7 ; 4.209491856791486E10 ; 40243.819999999956
114 ; 769467.1183228409 ; 4.0180373079536647E8 ; 7.538403757648736E7 ; 4.2496712063179306E10 ; 40599.959999999955
115 ; 770152.8163316533 ; 4.0181394919050586E8 ; 7.61535046948102E7 ; 4.289851579397467E10 ; 40956.099999999955
116 ; 770394.1514384501 ; 4.0182415011040664E8 ; 7.692365751114185E7 ; 4.330032974316518E10 ; 41312.239999999954
117 ; 770264.7372295099 ; 4.018343332209831E8 ; 7.76940516625803E7 ; 4.370215389327558E10 ; 41668.379999999954
118 ; 772149.6891354448 ; 4.018444981933055E8 ; 7.846431639980981E7 ; 4.410398822649657E10 ; 42024.51999999995
119 ; 773239.3787532174 ; 4.018546447034018E8 ; 7.923646608894525E7 ; 4.450583272468987E10 ; 42380.65999999995
120 ; 773851.307415777 ; 4.0186477243206924E8 ; 8.000970546769847E7 ; 4.490768736939327E10 ; 42736.79999999995
121 ; 775991.7421370338 ; 4.018748810646957E8 ; 8.078355677511425E7 ; 4.530955214182534E10 ; 43092.93999999995
122 ; 775432.31278379 ; 4.0188497029109013E8 ; 8.155954851725128E7 ; 4.571142702289004E10 ; 43449.07999999995
123 ; 775560.710533187 ; 4.0189503980532134E8 ; 8.233498083003508E7 ; 4.611331199318113E10 ; 43805.21999999995
124 ; 776058.7561114322 ; 4.019050893055651E8 ; 8.311054154056826E7 ; 4.651520703298645E10 ; 44161.35999999995
125 ; 775177.1139906144 ; 4.019151184939586E8 ; 8.388660029667969E7 ; 4.6917112122292015E10 ; 44517.49999999995
126 ; 774536.6905630964 ; 4.019251270764619E8 ; 8.466177741067031E7 ; 4.731902724078597E10 ; 44873.63999999995
127 ; 774147.0349153378 ; 4.019351147627269E8 ; 8.543631410123341E7 ; 4.7720952367862434E10 ; 45229.77999999995
128 ; 773487.9602850294 ; 4.0194508126597184E8 ; 8.621046113614875E7 ; 4.812288748262516E10 ; 45585.91999999995
129 ; 773232.39845081 ; 4.019550263028624E8 ; 8.698394909643377E7 ; 4.852483256389113E10 ; 45942.05999999995
130 ; 774194.6767726165 ; 4.019649495933982E8 ; 8.775718149488458E7 ; 4.892678759019399E10 ; 46298.199999999946
131 ; 772994.9519642267 ; 4.0197485086080515E8 ; 8.853137617165719E7 ; 4.932875253978739E10 ; 46654.339999999946
132 ; 773001.7198183448 ; 4.019847298314326E8 ; 8.930437112362142E7 ; 4.973072739064819E10 ; 47010.479999999945
133 ; 774185.0814407254 ; 4.019945862346552E8 ; 9.007737284343976E7 ; 5.013271212047963E10 ; 47366.619999999944
134 ; 774535.3202381975 ; 4.020044198027799E8 ; 9.085155792488049E7 ; 5.053470670671429E10 ; 47722.759999999944
135 ; 776852.9999520358 ; 4.0201423027095675E8 ; 9.162609324511869E7 ; 5.093671112651707E10 ; 48078.89999999994
136 ; 775833.9113835521 ; 4.0202401737709445E8 ; 9.240294624507073E7 ; 5.1338725356788025E10 ; 48435.03999999994
137 ; 776420.9024211835 ; 4.0203378086177903E8 ; 9.317878015645428E7 ; 5.174074937416512E10 ; 48791.17999999994
138 ; 776861.128783137 ; 4.02043520468197E8 ; 9.395520105887546E7 ; 5.21427831550269E10 ; 49147.31999999994
139 ; 777081.4105506467 ; 4.0205323594206166E8 ; 9.47320621876586E7 ; 5.25448266754951E10 ; 49503.45999999994
140 ; 776522.8680091365 ; 4.020629270315429E8 ; 9.550914359820925E7 ; 5.2946879911437164E10 ; 49859.59999999994
141 ; 775942.3510828956 ; 4.020725934871999E8 ; 9.628566646621838E7 ; 5.3348942838468704E10 ; 50215.73999999994
142 ; 777107.8218927131 ; 4.020822350619175E8 ; 9.706160881730127E7 ; 5.37510154319559E10 ; 50571.87999999994
143 ; 776001.8835576309 ; 4.020918515108445E8 ; 9.783871663919398E7 ; 5.415309766701782E10 ; 50928.01999999994
144 ; 775142.550001288 ; 4.0210144259133583E8 ; 9.861471852275161E7 ; 5.455518951852866E10 ; 51284.15999999994
145 ; 778112.2720586975 ; 4.021110080628962E8 ; 9.938986107275291E7 ; 5.495729096112E10 ; 51640.29999999994
146 ; 779104.8456767238 ; 4.0212054768712705E8 ; 1.001679733448116E8 ; 5.53594019691829E10 ; 51996.43999999994
147 ; 780148.217527119 ; 4.0213006122767556E8 ; 1.0094707819048832E8 ; 5.5761522516870026E10 ; 52352.579999999936
148 ; 781522.4615771439 ; 4.021395484501858E8 ; 1.0172722640801544E8 ; 5.61636525780977E10 ; 52708.719999999936
149 ; 784153.0402219966 ; 4.02149009122252E8 ; 1.0250874886959259E8 ; 5.656579212654789E10 ; 53064.859999999935
150 ; 786906.0046356393 ; 4.021584430133743E8 ; 1.032929019098146E8 ; 5.696794113567014E10 ; 53420.999999999935
151 ; 786753.2459472375 ; 4.0216784989491606E8 ; 1.0407980791445023E8 ; 5.737009957868352E10 ; 53777.139999999934
152 ; 789512.1490885088 ; 4.021772295400628E8 ; 1.0486656116039747E8 ; 5.777226742857843E10 ; 54133.27999999993
153 ; 791742.7885270327 ; 4.0218658172378314E8 ; 1.0565607330948597E8 ; 5.817444465811849E10 ; 54489.41999999993
154 ; 793669.685435292 ; 4.02195906222792E8 ; 1.06447816098013E8 ; 5.857663123984228E10 ; 54845.55999999993
155 ; 796055.8842545792 ; 4.022052028155144E8 ; 1.072414857834483E8 ; 5.897882714606507E10 ; 55201.69999999993
156 ; 799049.825442189 ; 4.022144712820512E8 ; 1.0803754166770287E8 ; 5.9381032348880585E10 ; 55557.83999999993
157 ; 799071.2092685481 ; 4.0222371140414655E8 ; 1.0883659149314506E8 ; 5.9783246820162636E10 ; 55913.97999999993
158 ; 800270.1634594338 ; 4.022329229651567E8 ; 1.0963566270241362E8 ; 6.018547053156678E10 ; 56270.11999999993
159 ; 803805.517856576 ; 4.022421057500193E8 ; 1.1043593286587305E8 ; 6.058770345453194E10 ; 56626.25999999993
160 ; 804899.3885987578 ; 4.022512595452255E8 ; 1.1123973838372964E8 ; 6.098994556028196E10 ; 56982.39999999993
161 ; 807700.9844183659 ; 4.0226038413879174E8 ; 1.1204463777232839E8 ; 6.139219681982719E10 ; 57338.53999999993
162 ; 810642.2679216657 ; 4.022694793202336E8 ; 1.1285233875674675E8 ; 6.179445720396598E10 ; 57694.67999999993
163 ; 809687.4998010946 ; 4.022785448805406E8 ; 1.1366298102466843E8 ; 6.219672668328622E10 ; 58050.81999999993
164 ; 811492.3032985028 ; 4.022875806121519E8 ; 1.1447266852446952E8 ; 6.2599005228166756E10 ; 58406.95999999993
165 ; 813401.270851313 ; 4.0229658630893314E8 ; 1.1528416082776803E8 ; 6.300129280877891E10 ; 58763.099999999926
166 ; 814344.4729943504 ; 4.0230556176615393E8 ; 1.1609756209861934E8 ; 6.340358939508784E10 ; 59119.239999999925
167 ; 816045.2724963923 ; 4.0231450678046703E8 ; 1.169119065716137E8 ; 6.380589495685399E10 ; 59475.379999999925
168 ; 817953.1759303135 ; 4.023234211498877E8 ; 1.1772795184411009E8 ; 6.420820946363445E10 ; 59831.519999999924
169 ; 819906.0096929867 ; 4.023323046737739E8 ; 1.185459050200404E8 ; 6.461053288478434E10 ; 60187.65999999992
170 ; 821725.8378500354 ; 4.0234115715280783E8 ; 1.1936581102973337E8 ; 6.5012865189458115E10 ; 60543.79999999992
171 ; 821831.3336279454 ; 4.023499783889781E8 ; 1.2018753686758341E8 ; 6.541520634661092E10 ; 60899.93999999992
172 ; 823407.6631929008 ; 4.02358768185562E8 ; 1.2100936820121135E8 ; 6.58175563249999E10 ; 61256.07999999992
173 ; 825644.4452179002 ; 4.0236752634710956E8 ; 1.2183277586440425E8 ; 6.621991509318546E10 ; 61612.21999999992
174 ; 828212.67966513 ; 4.02376252679427E8 ; 1.2265842030962215E8 ; 6.662228261953257E10 ; 61968.35999999992
175 ; 830256.2248198855 ; 4.023849469895626E8 ; 1.2348663298928729E8 ; 6.7024658872212E10 ; 62324.49999999992
176 ; 832910.6493386461 ; 4.02393609085791E8 ; 1.2431688921410717E8 ; 6.742704381920156E10 ; 62680.63999999992
177 ; 833804.5795862543 ; 4.0240223877760017E8 ; 1.2514979986344582E8 ; 6.782943742828735E10 ; 63036.77999999992
