CSV File for the Network on Day 216
1 - Minute m 
2 - Power Consumed at minute m 
3 - Power Produced at minute m 
4 - Energy Consumed since the beginning of the day 
5 - Energy Produced since the beginning of the day 
6 - Energy Lost since the beginning of the day 
 
0 ; 2454063.4219391844 ; 6.325159612137405E8 ; 0.0 ; 0.0 ; 0.0
1 ; 2497198.9205544125 ; 6.334166349416949E8 ; 2454063.4219391844 ; 6.325159612137405E8 ; 0.0
2 ; 2545040.4151596045 ; 6.361714529851726E8 ; 4951262.342493597 ; 1.2659325961554353E9 ; 0.0
3 ; 2593164.1023904243 ; 6.407805238878233E8 ; 7496302.757653202 ; 1.9021040491406078E9 ; 0.0
4 ; 2659557.871869045 ; 6.472439506020062E8 ; 1.0089466860043626E7 ; 2.542884573028431E9 ; 0.0
5 ; 2729329.858020731 ; 6.555618283465157E8 ; 1.274902473191267E7 ; 3.190128523630437E9 ; 0.0
6 ; 2824788.790842277 ; 6.657342424261967E8 ; 1.5478354589933401E7 ; 3.8456903519769526E9 ; 0.0
7 ; 2960754.0312453797 ; 6.777612661125014E8 ; 1.830314338077568E7 ; 4.51142459440315E9 ; 0.0
8 ; 3151643.9017996285 ; 6.916429586953379E8 ; 2.126389741202106E7 ; 5.189185860515651E9 ; 0.0
9 ; 3432411.257584822 ; 7.073793638189496E8 ; 2.441554131382069E7 ; 5.880828819210989E9 ; 0.0
10 ; 3876228.1791092465 ; 7.249705082061895E8 ; 2.784795257140551E7 ; 6.588208183029939E9 ; 0.0
11 ; 4574390.771778838 ; 7.444164008559867E8 ; 3.1724180750514757E7 ; 7.313178691236128E9 ; 0.0
12 ; 5683111.2255855575 ; 7.65717032769412E8 ; 3.62985715222936E7 ; 8.057595092092114E9 ; 0.0
13 ; 6758105.668744928 ; 7.888723772236125E8 ; 4.1981682747879155E7 ; 8.823312124861526E9 ; 0.0
14 ; 6883413.444493256 ; 8.13882390574345E8 ; 4.8739788416624084E7 ; 9.612184502085138E9 ; 0.0
15 ; 6946621.374653034 ; 8.407470135317006E8 ; 5.562320186111734E7 ; 1.0426066892659483E10 ; 0.0
16 ; 6994497.321932051 ; 8.694661728242284E8 ; 6.2569823235770375E7 ; 1.1266813906191183E10 ; 0.0
17 ; 7055663.917714834 ; 9.000397831470827E8 ; 6.956432055770242E7 ; 1.2136280079015411E10 ; 0.0
18 ; 7110770.304399045 ; 9.324677492814689E8 ; 7.661998447541726E7 ; 1.3036319862162495E10 ; 0.0
19 ; 7165211.445585622 ; 9.667499682750281E8 ; 8.37307547798163E7 ; 1.3968787611443964E10 ; 0.0
20 ; 7225842.026173776 ; 1.0028863315841106E9 ; 9.089596622540192E7 ; 1.4935537579718992E10 ; 0.0
21 ; 7281291.270797654 ; 1.0408767270963688E9 ; 9.81218082515757E7 ; 1.5938423911303102E10 ; 0.0
22 ; 7341246.227967724 ; 1.0807210409727437E9 ; 1.0540309952237335E8 ; 1.6979300638399471E10 ; 0.0
23 ; 7400614.654002309 ; 1.1224191592690618E9 ; 1.1274434575034107E8 ; 1.8060021679372215E10 ; 0.0
24 ; 7457543.549867827 ; 1.165970969316897E9 ; 1.2014496040434338E8 ; 1.9182440838641277E10 ; 0.0
25 ; 7516536.476549352 ; 1.2035046062489161E9 ; 1.276025039542112E8 ; 2.0348411807958176E10 ; 0.0
26 ; 7574103.25219712 ; 1.2035412501207473E9 ; 1.3511904043076056E8 ; 2.1551916414207092E10 ; 0.0
27 ; 7625904.977090383 ; 1.2035794137430043E9 ; 1.4269314368295768E8 ; 2.275545766432784E10 ; 0.0
28 ; 7680032.084833535 ; 1.2036189986501048E9 ; 1.5031904866004807E8 ; 2.3959037078070843E10 ; 0.0
29 ; 7743481.741821684 ; 1.2036599111796806E9 ; 1.579990807448816E8 ; 2.5162656076720947E10 ; 0.0
30 ; 7796286.168915354 ; 1.2037020626509817E9 ; 1.6574256248670328E8 ; 2.6366315987900627E10 ; 0.0
31 ; 7850819.867596684 ; 1.2037453694273922E9 ; 1.7353884865561864E8 ; 2.757001805055161E10 ; 0.0
32 ; 7901716.726032082 ; 1.2037897528866346E9 ; 1.8138966852321532E8 ; 2.8773763419979E10 ; 0.0
33 ; 7951424.595540807 ; 1.2038351393195968E9 ; 1.892913852492474E8 ; 2.9977553172865635E10 ; 0.0
34 ; 8001675.604136574 ; 1.2038814597758498E9 ; 1.972428098447882E8 ; 3.118138831218523E10 ; 0.0
35 ; 8055096.870948746 ; 1.2039286498710632E9 ; 2.0524448544892478E8 ; 3.238526977196108E10 ; 0.0
36 ; 8103969.539749298 ; 1.2039766495688448E9 ; 2.132995823198735E8 ; 3.358919842183214E10 ; 0.0
37 ; 8151558.044838013 ; 1.2040254029471025E9 ; 2.214035518596228E8 ; 3.4793175071400986E10 ; 0.0
38 ; 8204481.401849621 ; 1.2040748579569023E9 ; 2.2955510990446082E8 ; 3.599720047434809E10 ; 0.0
39 ; 8240951.542899047 ; 1.2041249661799774E9 ; 2.3775959130631045E8 ; 3.720127533230499E10 ; 0.0
40 ; 8285267.787114302 ; 1.2041756825895336E9 ; 2.460005428492095E8 ; 3.840540029848497E10 ; 0.0
41 ; 8329877.548906903 ; 1.2042269653177416E9 ; 2.5428581063632378E8 ; 3.96095759810745E10 ; 0.0
42 ; 8368805.697158036 ; 1.204278775432306E9 ; 2.6261568818523067E8 ; 4.081380294639224E10 ; 0.0
43 ; 8406584.256961862 ; 1.2043310767237015E9 ; 2.709844938823887E8 ; 4.201808172182455E10 ; 0.0
44 ; 8440462.642000267 ; 1.204383835504038E9 ; 2.793910781393506E8 ; 4.322241279854825E10 ; 0.0
45 ; 8482192.796092076 ; 1.2044370204180434E9 ; 2.8783154078135085E8 ; 4.4426796634052284E10 ; 0.0
46 ; 8512760.156525232 ; 1.2044906022662797E9 ; 2.9631373357744294E8 ; 4.563123365447033E10 ; 0.0
47 ; 8540706.808224078 ; 1.2045445538404531E9 ; 3.048264937339682E8 ; 4.683572425673661E10 ; 0.0
48 ; 8570986.104552127 ; 1.2045988497704744E9 ; 3.133672005421923E8 ; 4.8040268810577065E10 ; 0.0
49 ; 8601481.089275597 ; 1.2046534663828073E9 ; 3.2193818664674443E8 ; 4.924486766034754E10 ; 0.0
50 ; 8625270.894539744 ; 1.2047083815695398E9 ; 3.3053966773602E8 ; 5.044952112673035E10 ; 0.0
51 ; 8649342.076861057 ; 1.2047635746675751E9 ; 3.391649386305598E8 ; 5.165422950829989E10 ; 0.0
52 ; 8673443.3436895 ; 1.2048190263473105E9 ; 3.478142807074209E8 ; 5.285899308296746E10 ; 0.0
53 ; 8698540.777867494 ; 1.2048747185101633E9 ; 3.564877240511104E8 ; 5.406381210931477E10 ; 0.0
54 ; 8722466.374880377 ; 1.204930634194315E9 ; 3.651862648289779E8 ; 5.5268686827824936E10 ; 0.0
55 ; 8747219.82731647 ; 1.2049867574880702E9 ; 3.7390873120385826E8 ; 5.647361746201925E10 ; 0.0
56 ; 8768398.746258806 ; 1.2050430734502387E9 ; 3.826559510311747E8 ; 5.767860421950732E10 ; 0.0
57 ; 8794621.217835568 ; 1.205099568036993E9 ; 3.914243497774335E8 ; 5.888364729295756E10 ; 0.0
58 ; 8808584.024856715 ; 1.2051562280346842E9 ; 4.0021897099526906E8 ; 6.008874686099455E10 ; 0.0
59 ; 8835068.407991117 ; 1.2052130409981208E9 ; 4.0902755502012575E8 ; 6.1293903089029236E10 ; 0.0
60 ; 8852809.407966252 ; 1.2052699951938698E9 ; 4.1786262342811686E8 ; 6.249911613002736E10 ; 0.0
61 ; 8880387.656038959 ; 1.205327079548154E9 ; 4.267154328360831E8 ; 6.370438612522123E10 ; 0.0
62 ; 8902665.561497128 ; 1.205384283598962E9 ; 4.3559582049212205E8 ; 6.490971320476939E10 ; 0.0
63 ; 8918618.433821796 ; 1.2054415974520156E9 ; 4.444984860536192E8 ; 6.611509748836835E10 ; 0.0
64 ; 8941443.21074352 ; 1.2054990117402647E9 ; 4.53417104487441E8 ; 6.7320539085820366E10 ; 0.0
65 ; 8961137.014437195 ; 1.2055565175866175E9 ; 4.6235854769818455E8 ; 6.852603809756063E10 ; 0.0
66 ; 8983468.602148153 ; 1.2056141065696216E9 ; 4.7131968471262175E8 ; 6.973159461514725E10 ; 0.0
67 ; 9002433.423354033 ; 1.2056717706918535E9 ; 4.803031533147699E8 ; 7.093720872171687E10 ; 0.0
68 ; 9026017.19107329 ; 1.2057295023507838E9 ; 4.8930558673812395E8 ; 7.214288049240872E10 ; 0.0
69 ; 9043588.311101552 ; 1.205787294311908E9 ; 4.9833160392919725E8 ; 7.33486099947595E10 ; 0.0
70 ; 9064235.485484932 ; 1.2058451396839552E9 ; 5.073751922402988E8 ; 7.455439728907141E10 ; 0.0
71 ; 9076120.823937714 ; 1.2059030318959937E9 ; 5.1643942772578377E8 ; 7.576024242875537E10 ; 0.0
72 ; 9103999.783716919 ; 1.205960964676287E9 ; 5.255155485497215E8 ; 7.696614546065137E10 ; 0.0
73 ; 9118855.758706661 ; 1.206018932032737E9 ; 5.346195483334384E8 ; 7.817210642532765E10 ; 0.0
74 ; 9132108.92767512 ; 1.2060769282348018E9 ; 5.437384040921451E8 ; 7.937812535736038E10 ; 0.0
75 ; 9153881.923727643 ; 1.2061349477967517E9 ; 5.528705130198202E8 ; 8.058420228559518E10 ; 0.0
76 ; 9173095.756865917 ; 1.2061929854621625E9 ; 5.620243949435478E8 ; 8.179033723339194E10 ; 0.0
77 ; 9187000.690107213 ; 1.2062510361895418E9 ; 5.711974907004137E8 ; 8.29965302188541E10 ; 0.0
78 ; 9195408.051284302 ; 1.2063090951389987E9 ; 5.803844913905209E8 ; 8.420278125504364E10 ; 0.0
79 ; 9198530.817929775 ; 1.206367157659871E9 ; 5.895798994418052E8 ; 8.540909035018263E10 ; 0.0
80 ; 9203090.653564436 ; 1.2064252192792342E9 ; 5.98778430259735E8 ; 8.66154575078425E10 ; 0.0
81 ; 9202446.847437812 ; 1.2064832756912243E9 ; 6.079815209132994E8 ; 8.782188272712173E10 ; 0.0
82 ; 9207592.873972123 ; 1.206541322747109E9 ; 6.171839677607373E8 ; 8.902836600281296E10 ; 0.0
83 ; 9209291.59690428 ; 1.206599356446046E9 ; 6.263915606347095E8 ; 9.023490732556007E10 ; 0.0
84 ; 9212489.051510328 ; 1.206657372926482E9 ; 6.356008522316138E8 ; 9.144150668200612E10 ; 0.0
85 ; 9214785.984885065 ; 1.206715368458136E9 ; 6.448133412831241E8 ; 9.26481640549326E10 ; 0.0
86 ; 9210017.69491956 ; 1.2067733394345276E9 ; 6.540281272680092E8 ; 9.385487942339073E10 ; 0.0
87 ; 9216914.253488451 ; 1.206831282366004E9 ; 6.632381449629288E8 ; 9.506165276282526E10 ; 0.0
88 ; 9216937.746046774 ; 1.2068891938732338E9 ; 6.724550592164172E8 ; 9.626848404519125E10 ; 0.0
89 ; 9223075.281683754 ; 1.2069470706811304E9 ; 6.81671996962464E8 ; 9.747537323906448E10 ; 0.0
90 ; 9217684.643931037 ; 1.2070049096131687E9 ; 6.908950722441478E8 ; 9.868232030974562E10 ; 0.0
91 ; 9221708.042230997 ; 1.207062707586075E9 ; 7.001127568880788E8 ; 9.98893252193588E10 ; 0.0
92 ; 9226170.074259987 ; 1.2071204616048565E9 ; 7.093344649303098E8 ; 1.0109638792694487E11 ; 0.0
93 ; 9224773.85215672 ; 1.2071781687581468E9 ; 7.185606350045698E8 ; 1.0230350838854973E11 ; 0.0
94 ; 9220522.55113333 ; 1.207235826213847E9 ; 7.277854088567265E8 ; 1.0351068655730788E11 ; 0.0
95 ; 9221174.721840989 ; 1.2072934312150388E9 ; 7.370059314078598E8 ; 1.0471792238352173E11 ; 0.0
96 ; 9223015.139127707 ; 1.2073509810761533E9 ; 7.462271061297008E8 ; 1.0592521581473677E11 ; 0.0
97 ; 9218089.16532876 ; 1.207408473179374E9 ; 7.554501212688285E8 ; 1.0713256679581293E11 ; 0.0
98 ; 9219293.740090365 ; 1.2074659049712615E9 ; 7.646682104341573E8 ; 1.083399752689923E11 ; 0.0
99 ; 9217490.995251779 ; 1.2075232739595802E9 ; 7.738875041742476E8 ; 1.0954744117396356E11 ; 0.0
100 ; 9216204.975824315 ; 1.2075805777103195E9 ; 7.831049951694994E8 ; 1.1075496444792314E11 ; 0.0
101 ; 9212755.227860056 ; 1.207637813844889E9 ; 7.923212001453238E8 ; 1.1196254502563345E11 ; 0.0
102 ; 9206718.706642937 ; 1.207694980037482E9 ; 8.015339553731838E8 ; 1.1317018283947835E11 ; 0.0
103 ; 9206901.979719292 ; 1.2077520740125933E9 ; 8.107406740798268E8 ; 1.1437787781951582E11 ; 0.0
104 ; 9205532.414223704 ; 1.2078090935426795E9 ; 8.199475760595461E8 ; 1.1558562989352841E11 ; 0.0
105 ; 9201384.2096027 ; 1.2078660364459581E9 ; 8.291531084737698E8 ; 1.1679343898707109E11 ; 0.0
106 ; 9198047.37416765 ; 1.2079229005843296E9 ; 8.383544926833725E8 ; 1.1800130502351704E11 ; 0.0
107 ; 9190410.15284711 ; 1.2079796838614182E9 ; 8.475525400575402E8 ; 1.1920922792410138E11 ; 0.0
108 ; 9188479.21884134 ; 1.2080363842207255E9 ; 8.567429502103872E8 ; 1.204172076079628E11 ; 0.0
109 ; 9181901.89535296 ; 1.2080929996438832E9 ; 8.659314294292285E8 ; 1.2162524399218352E11 ; 0.0
110 ; 9179139.120729519 ; 1.208149528149008E9 ; 8.751133313245815E8 ; 1.2283333699182741E11 ; 0.0
111 ; 9178739.222682929 ; 1.208205967789143E9 ; 8.842924704453111E8 ; 1.2404148651997641E11 ; 0.0
112 ; 9171920.073341442 ; 1.208262316650786E9 ; 8.93471209667994E8 ; 1.2524969248776555E11 ; 0.0
113 ; 9162646.450234504 ; 1.2083185728524992E9 ; 9.026431297413355E8 ; 1.2645795480441634E11 ; 0.0
114 ; 9155859.814874327 ; 1.2083747345435915E9 ; 9.1180577619157E8 ; 1.2766627337726883E11 ; 0.0
115 ; 9151298.484885592 ; 1.2084307999028714E9 ; 9.209616360064443E8 ; 1.2887464811181242E11 ; 0.0
116 ; 9146384.889535632 ; 1.20848676713747E9 ; 9.301129344913299E8 ; 1.300830789117153E11 ; 0.0
117 ; 9144385.72725663 ; 1.2085426344817207E9 ; 9.392593193808656E8 ; 1.3129156567885277E11 ; 0.0
118 ; 9129530.321082093 ; 1.2085984001961017E9 ; 9.484037051081222E8 ; 1.3250010831333449E11 ; 0.0
119 ; 9122330.60805215 ; 1.2086540625662322E9 ; 9.575332354292043E8 ; 1.337087067135306E11 ; 0.0
120 ; 9117375.30805887 ; 1.2087096199019191E9 ; 9.666555660372565E8 ; 1.3491736077609683E11 ; 0.0
121 ; 9104694.589540618 ; 1.2087650705362566E9 ; 9.757729413453153E8 ; 1.3612607039599875E11 ; 0.0
122 ; 9100630.826039817 ; 1.2088204128247662E9 ; 9.848776359348559E8 ; 1.37334835466535E11 ; 0.0
123 ; 9087991.403484056 ; 1.2088756451445866E9 ; 9.939782667608957E8 ; 1.3854365587935977E11 ; 0.0
124 ; 9083517.41912081 ; 1.2089307658936977E9 ; 1.0030662581643798E9 ; 1.3975253152450436E11 ; 0.0
125 ; 9072423.34951752 ; 1.2089857734901903E9 ; 1.0121497755835006E9 ; 1.4096146229039807E11 ; 0.0
126 ; 9065378.699792486 ; 1.2090406663715665E9 ; 1.0212221989330181E9 ; 1.4217044806388828E11 ; 0.0
127 ; 9052988.615767416 ; 1.209095442994077E9 ; 1.0302875776328106E9 ; 1.4337948873025983E11 ; 0.0
128 ; 9045607.819420459 ; 1.209150101832092E9 ; 1.039340566248578E9 ; 1.445885841732539E11 ; 0.0
129 ; 9036661.368568383 ; 1.209204641377501E9 ; 1.0483861740679984E9 ; 1.45797734275086E11 ; 0.0
130 ; 9017350.83990616 ; 1.2092590601391432E9 ; 1.0574228354365668E9 ; 1.470069389164635E11 ; 0.0
131 ; 8999157.312512808 ; 1.2093133566422627E9 ; 1.066440186276473E9 ; 1.4821619797660263E11 ; 0.0
132 ; 8971087.461259916 ; 1.2093675294279943E9 ; 1.075439343588986E9 ; 1.494255113332449E11 ; 0.0
133 ; 8948692.841983795 ; 1.2094215770528698E9 ; 1.0844104310502458E9 ; 1.506348788626729E11 ; 0.0
134 ; 8925450.829981524 ; 1.2094754980883496E9 ; 1.0933591238922296E9 ; 1.5184430043972577E11 ; 0.0
135 ; 8898973.952555284 ; 1.209529291120376E9 ; 1.1022845747222111E9 ; 1.5305377593781412E11 ; 0.0
136 ; 8874038.523868376 ; 1.2095829547489488E9 ; 1.1111835486747663E9 ; 1.5426330522893448E11 ; 0.0
137 ; 8850335.45310954 ; 1.209636487587717E9 ; 1.1200575871986346E9 ; 1.5547288818368344E11 ; 0.0
138 ; 8823368.913501661 ; 1.2096898882635946E9 ; 1.1289079226517441E9 ; 1.5668252467127115E11 ; 0.0
139 ; 8797797.32598373 ; 1.2097431554163902E9 ; 1.1377312915652459E9 ; 1.5789221455953473E11 ; 0.0
140 ; 8772560.807656176 ; 1.209796287698455E9 ; 1.1465290888912296E9 ; 1.591019577149511E11 ; 0.0
141 ; 8746788.050123813 ; 1.2098492837743475E9 ; 1.155301649698886E9 ; 1.6031175400264957E11 ; 0.0
142 ; 8719630.519118851 ; 1.2099021423205125E9 ; 1.1640484377490098E9 ; 1.6152160328642392E11 ; 0.0
143 ; 8693212.527290413 ; 1.2099548620249755E9 ; 1.1727680682681286E9 ; 1.6273150542874445E11 ; 0.0
144 ; 8666850.070284681 ; 1.21000744158705E9 ; 1.181461280795419E9 ; 1.639414602907694E11 ; 0.0
145 ; 8660516.732395612 ; 1.2100598797170587E9 ; 1.1901281308657036E9 ; 1.6515146773235645E11 ; 0.0
146 ; 8643428.126854911 ; 1.2101121751360676E9 ; 1.1987886475980992E9 ; 1.6636152761207352E11 ; 0.0
147 ; 8634982.422076184 ; 1.210164326575631E9 ; 1.2074320757249541E9 ; 1.675716397872096E11 ; 0.0
148 ; 8628710.480411742 ; 1.210216332777547E9 ; 1.2160670581470304E9 ; 1.6878180411378522E11 ; 0.0
149 ; 8611298.337250222 ; 1.2102681924936268E9 ; 1.2246957686274421E9 ; 1.6999202044656277E11 ; 0.0
150 ; 8606365.030279322 ; 1.2103199044854722E9 ; 1.2333070669646924E9 ; 1.712022886390564E11 ; 0.0
151 ; 8592522.245182026 ; 1.2103714675242617E9 ; 1.2419134319949718E9 ; 1.7241260854354187E11 ; 0.0
152 ; 8578863.838963406 ; 1.2104228803905487E9 ; 1.2505059542401538E9 ; 1.7362298001106613E11 ; 0.0
153 ; 8570308.896526804 ; 1.2104741418740673E9 ; 1.2590848180791173E9 ; 1.7483340289145667E11 ; 0.0
154 ; 8562667.818516035 ; 1.210525250773545E9 ; 1.267655126975644E9 ; 1.7604387703333072E11 ; 0.0
155 ; 8554990.152487427 ; 1.2105762058965273E9 ; 1.2762177947941601E9 ; 1.7725440228410428E11 ; 0.0
156 ; 8541043.272646742 ; 1.2106270060592046E9 ; 1.2847727849466476E9 ; 1.784649784900008E11 ; 0.0
157 ; 8533166.638079675 ; 1.2106776500862525E9 ; 1.2933138282192943E9 ; 1.7967560549606E11 ; 0.0
158 ; 8524523.834582802 ; 1.2107281368106747E9 ; 1.301846994857374E9 ; 1.8088628314614624E11 ; 0.0
159 ; 8509604.3145386 ; 1.2107784650736535E9 ; 1.3103715186919568E9 ; 1.820970112829569E11 ; 0.0
160 ; 8496326.716160187 ; 1.2108286337244084E9 ; 1.3188811230064955E9 ; 1.8330778974803055E11 ; 0.0
161 ; 8487088.00402853 ; 1.210878641620059E9 ; 1.3273774497226558E9 ; 1.8451861838175494E11 ; 0.0
162 ; 8477008.74060581 ; 1.2109284876254938E9 ; 1.3358645377266843E9 ; 1.85729497023375E11 ; 0.0
163 ; 8465033.692808606 ; 1.2109781706132464E9 ; 1.3443415464672902E9 ; 1.869404255110005E11 ; 0.0
164 ; 8453540.415129848 ; 1.2110276894633741E9 ; 1.3528065801600988E9 ; 1.8815140368161374E11 ; 0.0
165 ; 8442712.209169246 ; 1.211077043063346E9 ; 1.3612601205752287E9 ; 1.8936243137107712E11 ; 0.0
166 ; 8434563.687952291 ; 1.2111262303079283E9 ; 1.3697028327843978E9 ; 1.9057350841414047E11 ; 0.0
167 ; 8417390.747507762 ; 1.2111752500990849E9 ; 1.3781373964723501E9 ; 1.917846346444484E11 ; 0.0
168 ; 8413075.005488819 ; 1.2112241013458729E9 ; 1.386554787219858E9 ; 1.929958098945475E11 ; 0.0
169 ; 8398375.547150806 ; 1.2112727829643474E9 ; 1.3949678622253468E9 ; 1.9420703399589337E11 ; 0.0
170 ; 8383746.794614516 ; 1.2113212938774695E9 ; 1.4033662377724977E9 ; 1.9541830677885773E11 ; 0.0
171 ; 8372791.002537452 ; 1.2113696330150166E9 ; 1.4117499845671122E9 ; 1.966296280727352E11 ; 0.0
172 ; 8365057.279869283 ; 1.2114177993134992E9 ; 1.4201227755696497E9 ; 1.978409977057502E11 ; 0.0
173 ; 8354094.943723828 ; 1.2114657917160795E9 ; 1.428487832849519E9 ; 1.9905241550506372E11 ; 0.0
174 ; 8348859.637845975 ; 1.211513609172493E9 ; 1.436841927793243E9 ; 2.002638812967798E11 ; 0.0
175 ; 8342271.180950579 ; 1.2115612506389747E9 ; 1.445190787431089E9 ; 2.0147539490595227E11 ; 0.0
176 ; 8333281.815793641 ; 1.211608715078188E9 ; 1.4535330586120396E9 ; 2.0268695615659125E11 ; 0.0
177 ; 8321214.540616568 ; 1.2116560014591565E9 ; 1.4618663404278333E9 ; 2.0389856487166943E11 ; 0.0
178 ; 8314735.942688212 ; 1.2117031087571986E9 ; 1.4701875549684498E9 ; 2.051102208731286E11 ; 0.0
179 ; 8311203.43806581 ; 1.2117500359538646E9 ; 1.478502290911138E9 ; 2.063219239818858E11 ; 0.0
180 ; 8303128.357746294 ; 1.2117967820368774E9 ; 1.4868134943492038E9 ; 2.0753367401783966E11 ; 0.0
181 ; 8293112.7103796825 ; 1.211843346000076E9 ; 1.4951166227069502E9 ; 2.0874547079987653E11 ; 0.0
182 ; 8282563.835199326 ; 1.211889726843359E9 ; 1.5034097354173298E9 ; 2.099573141458766E11 ; 0.0
183 ; 8277595.524756646 ; 1.2119359235726335E9 ; 1.5116922992525291E9 ; 2.1116920387271994E11 ; 0.0
184 ; 8272119.144477628 ; 1.2119819351997643E9 ; 1.5199698947772858E9 ; 2.1238113979629257E11 ; 0.0
185 ; 8265309.832879267 ; 1.212027760742526E9 ; 1.5282420139217634E9 ; 2.1359312173149234E11 ; 0.0
186 ; 8251526.050302299 ; 1.2120733992245574E9 ; 1.5365073237546427E9 ; 2.1480514949223486E11 ; 0.0
187 ; 8252091.739234144 ; 1.2121188496753173E9 ; 1.544758849804945E9 ; 2.160172228914594E11 ; 0.0
188 ; 8235096.814489838 ; 1.212164111130042E9 ; 1.5530109415441792E9 ; 2.1722934174113474E11 ; 0.0
189 ; 8233509.985259978 ; 1.2122091826297066E9 ; 1.561246038358669E9 ; 2.1844150585226477E11 ; 0.0
190 ; 8221395.871222985 ; 1.212254063220985E9 ; 1.569479548343929E9 ; 2.1965371503489447E11 ; 0.0
191 ; 8216224.561734775 ; 1.2122987519562147E9 ; 1.577700944215152E9 ; 2.2086596909811545E11 ; 0.0
192 ; 8208856.007907107 ; 1.2123432478933601E9 ; 1.5859171687768867E9 ; 2.2207826785007166E11 ; 0.0
193 ; 8200102.724341125 ; 1.2123875500959814E9 ; 1.5941260247847939E9 ; 2.2329061109796503E11 ; 0.0
194 ; 8196852.841822898 ; 1.2124316576331997E9 ; 1.602326127509135E9 ; 2.24502998648061E11 ; 0.0
195 ; 8187498.34816747 ; 1.2124755695796688E9 ; 1.6105229803509579E9 ; 2.257154303056942E11 ; 0.0
196 ; 8176494.954975279 ; 1.2125192850155458E9 ; 1.6187104786991253E9 ; 2.269279058752739E11 ; 0.0
197 ; 8171760.668002283 ; 1.212562803026463E9 ; 1.6268869736541007E9 ; 2.2814042516028943E11 ; 0.0
198 ; 8163141.1157728955 ; 1.2126061227035005E9 ; 1.635058734322103E9 ; 2.293529879633159E11 ; 0.0
199 ; 8159486.942500878 ; 1.2126492431431627E9 ; 1.643221875437876E9 ; 2.3056559408601938E11 ; 0.0
200 ; 8148470.045660847 ; 1.2126921634473538E9 ; 1.6513813623803768E9 ; 2.3177824332916254E11 ; 0.0
201 ; 8138062.217781871 ; 1.1177947553749156E9 ; 1.6595298324260375E9 ; 2.329909354926099E11 ; 0.0
