CSV File for the Network on Day 81
1 - Minute m 
2 - Power Consumed at minute m 
3 - Power Produced at minute m 
4 - Energy Consumed since the beginning of the day 
5 - Energy Produced since the beginning of the day 
6 - Energy Lost since the beginning of the day 
 
0 ; 3.8566766069258034E7 ; 6.348468142600971E8 ; 0.0 ; 0.0 ; 0.0
1 ; 3.8607907441376284E7 ; 6.357575020323615E8 ; 3.8566766069258034E7 ; 6.348468142600971E8 ; 0.0
2 ; 3.864384374189013E7 ; 6.385215914138613E8 ; 7.717467351063432E7 ; 1.2706043162924585E9 ; 0.0
3 ; 3.8691688989845484E7 ; 6.431391000352747E8 ; 1.1581851725252445E8 ; 1.9091259077063198E9 ; 0.0
4 ; 3.874504807094779E7 ; 6.496100437158659E8 ; 1.5451020624236995E8 ; 2.5522650077415943E9 ; 0.0
5 ; 3.882112483757719E7 ; 6.579344363694332E8 ; 1.9325525431331775E8 ; 3.2018750514574604E9 ; 0.0
6 ; 3.891071289487821E7 ; 6.681122899198805E8 ; 2.3207637915089494E8 ; 3.859809487826894E9 ; 0.0
7 ; 3.9038322852740094E7 ; 6.801436142275856E8 ; 2.7098709204577315E8 ; 4.527921777746775E9 ; 0.0
8 ; 3.9226615186012186E7 ; 6.94028417027614E8 ; 3.1002541489851326E8 ; 5.20806539197436E9 ; 0.0
9 ; 3.950706102468367E7 ; 7.097667038806851E8 ; 3.4925203008452547E8 ; 5.902093809001974E9 ; 0.0
10 ; 3.994044376306236E7 ; 7.273584781376069E8 ; 3.887590911092091E8 ; 6.611860512882659E9 ; 0.0
11 ; 4.0630988269576825E7 ; 7.468037409177223E8 ; 4.286995348722715E8 ; 7.339218991020266E9 ; 0.0
12 ; 4.1736386545668356E7 ; 7.681024911016883E8 ; 4.693305231418483E8 ; 8.086022731937988E9 ; 0.0
13 ; 4.280592579299773E7 ; 7.912547253386965E8 ; 5.110669096875167E8 ; 8.854125223039677E9 ; 0.0
14 ; 4.292903899605828E7 ; 8.162604380680289E8 ; 5.538728354805144E8 ; 9.645379948378372E9 ; 0.0
15 ; 4.297712825280711E7 ; 8.431196215546182E8 ; 5.968018744765726E8 ; 1.0461640386446402E10 ; 0.0
16 ; 4.3027757752482265E7 ; 8.71832265938088E8 ; 6.397790027293798E8 ; 1.130476000800102E10 ; 0.0
17 ; 4.307820726289902E7 ; 9.023983592945341E8 ; 6.828067604818621E8 ; 1.2176592273939108E10 ; 0.0
18 ; 4.312753955554379E7 ; 9.348178877101574E8 ; 7.258849677447611E8 ; 1.3078990633233643E10 ; 0.0
19 ; 4.317783418420797E7 ; 9.690908353656949E8 ; 7.690125073003049E8 ; 1.40138085209438E10 ; 0.0
20 ; 4.322449145161284E7 ; 1.0052171846304673E9 ; 8.121903414845128E8 ; 1.4982899356309494E10 ; 0.0
21 ; 4.32786003687544E7 ; 1.043196916164784E9 ; 8.554148329361256E8 ; 1.598811654093996E10 ; 0.0
22 ; 4.333312871723683E7 ; 1.083030009029358E9 ; 8.9869343330488E8 ; 1.7031313457104744E10 ; 0.0
23 ; 4.3380862911925085E7 ; 1.1247164408003645E9 ; 9.420265620221169E8 ; 1.81143434661341E10 ; 0.0
24 ; 4.343778720632227E7 ; 1.1682561876887617E9 ; 9.85407424934042E8 ; 1.9239059906934467E10 ; 0.0
25 ; 4.347785951000232E7 ; 1.205777470051614E9 ; 1.0288452121403643E9 ; 2.040731609462323E10 ; 0.0
26 ; 4.3529908728322834E7 ; 1.2058015487372704E9 ; 1.0723230716503667E9 ; 2.1613093564674843E10 ; 0.0
27 ; 4.3582050023491144E7 ; 1.2058270123589253E9 ; 1.1158529803786895E9 ; 2.2818895113412113E10 ; 0.0
28 ; 4.362436503738293E7 ; 1.2058538328985586E9 ; 1.1594350304021807E9 ; 2.4024722125771038E10 ; 0.0
29 ; 4.367592576838367E7 ; 1.20588198158781E9 ; 1.2030593954395635E9 ; 2.5230575958669598E10 ; 0.0
30 ; 4.372518737806831E7 ; 1.205911429026518E9 ; 1.2467353212079473E9 ; 2.643645794025741E10 ; 0.0
31 ; 4.376823007369638E7 ; 1.2059421452975538E9 ; 1.2904605085860155E9 ; 2.7642369369283928E10 ; 0.0
32 ; 4.381150849232389E7 ; 1.2059741000772157E9 ; 1.3342287386597118E9 ; 2.8848311514581482E10 ; 0.0
33 ; 4.385987923157472E7 ; 1.2060072627405922E9 ; 1.3780402471520357E9 ; 3.00542856146587E10 ; 0.0
34 ; 4.3899407583013184E7 ; 1.206041602461393E9 ; 1.4219001263836105E9 ; 3.1260292877399292E10 ; 0.0
35 ; 4.3944610703368984E7 ; 1.2060770883058836E9 ; 1.4657995339666238E9 ; 3.2466334479860683E10 ; 0.0
36 ; 4.398802628820926E7 ; 1.2061136893206496E9 ; 1.5097441446699927E9 ; 3.367241156816657E10 ; 0.0
37 ; 4.4024738023331724E7 ; 1.20615137461403E9 ; 1.553732170958202E9 ; 3.487852525748722E10 ; 0.0
38 ; 4.405773135515675E7 ; 1.206190113431136E9 ; 1.5977569089815335E9 ; 3.608467663210125E10 ; 0.0
39 ; 4.4093300941352144E7 ; 1.2062298752224607E9 ; 1.6418146403366902E9 ; 3.729086674553239E10 ; 0.0
40 ; 4.41309658004101E7 ; 1.2062706297061567E9 ; 1.6859079412780423E9 ; 3.8497096620754845E10 ; 0.0
41 ; 4.4160028173301786E7 ; 1.2063123469241097E9 ; 1.7300389070784523E9 ; 3.9703367250461E10 ; 0.0
42 ; 4.419288409466586E7 ; 1.2063549972920036E9 ; 1.774198935251754E9 ; 4.090967959738511E10 ; 0.0
43 ; 4.422374395139645E7 ; 1.2063985516435978E9 ; 1.8183918193464198E9 ; 4.211603459467711E10 ; 0.0
44 ; 4.4250818748500705E7 ; 1.2064429812694821E9 ; 1.8626155632978163E9 ; 4.332243314632071E10 ; 0.0
45 ; 4.427207517757835E7 ; 1.2064882579505951E9 ; 1.906866382046317E9 ; 4.4528876127590195E10 ; 0.0
46 ; 4.429480685359305E7 ; 1.2065343539868126E9 ; 1.9511384572238955E9 ; 4.573536438554079E10 ; 0.0
47 ; 4.432064515478677E7 ; 1.206581242220918E9 ; 1.9954332640774887E9 ; 4.69418987395276E10 ; 0.0
48 ; 4.4332566161085576E7 ; 1.2066288960582836E9 ; 2.0397539092322755E9 ; 4.814847998174852E10 ; 0.0
49 ; 4.4355327004176304E7 ; 1.2066772894825792E9 ; 2.084086475393361E9 ; 4.93551088778068E10 ; 0.0
50 ; 4.4367344452107236E7 ; 1.2067263970678322E9 ; 2.1284418023975375E9 ; 5.056178616728938E10 ; 0.0
51 ; 4.437966121011957E7 ; 1.2067761939871492E9 ; 2.1728091468496447E9 ; 5.1768512564357216E10 ; 0.0
52 ; 4.439573630917381E7 ; 1.206826656018406E9 ; 2.2171888080597644E9 ; 5.297528875834437E10 ; 0.0
53 ; 4.440865313069326E7 ; 1.2068777595471935E9 ; 2.261584544368938E9 ; 5.418211541436278E10 ; 0.0
54 ; 4.442092057442644E7 ; 1.2069294815673008E9 ; 2.3059931974996314E9 ; 5.538899317390997E10 ; 0.0
55 ; 4.443116078393563E7 ; 1.2069817996789975E9 ; 2.350414118074058E9 ; 5.659592265547727E10 ; 0.0
56 ; 4.444915661450945E7 ; 1.2070346920853643E9 ; 2.3948452788579936E9 ; 5.780290445515627E10 ; 0.0
57 ; 4.4447610174140364E7 ; 1.2070881375869014E9 ; 2.439294435472503E9 ; 5.900993914724164E10 ; 0.0
58 ; 4.447233437311744E7 ; 1.2071421155746346E9 ; 2.4837420456466436E9 ; 6.021702728482854E10 ; 0.0
59 ; 4.4473987442064114E7 ; 1.2071966060219147E9 ; 2.528214380019761E9 ; 6.142416940040317E10 ; 0.0
60 ; 4.448915382186654E7 ; 1.2072515894750996E9 ; 2.5726883674618254E9 ; 6.263136600642508E10 ; 0.0
61 ; 4.450003714965886E7 ; 1.2073070470432806E9 ; 2.617177521283692E9 ; 6.383861759590018E10 ; 0.0
62 ; 4.450417128545369E7 ; 1.2073629603872156E9 ; 2.6616775584333506E9 ; 6.504592464294346E10 ; 0.0
63 ; 4.451744620237643E7 ; 1.207419311707603E9 ; 2.7061817297188044E9 ; 6.625328760333067E10 ; 0.0
64 ; 4.452370286410406E7 ; 1.2074760837328255E9 ; 2.7506991759211807E9 ; 6.746070691503828E10 ; 0.0
65 ; 4.453437674095663E7 ; 1.2075332597062788E9 ; 2.795222878785285E9 ; 6.86681829987711E10 ; 0.0
66 ; 4.453944500917939E7 ; 1.207590823373385E9 ; 2.839757255526242E9 ; 6.987571625847739E10 ; 0.0
67 ; 4.4547871542246334E7 ; 1.2076487589683857E9 ; 2.8842967005354214E9 ; 7.108330708185077E10 ; 0.0
68 ; 4.455688965082336E7 ; 1.2077070512009938E9 ; 2.9288445720776677E9 ; 7.229095584081915E10 ; 0.0
69 ; 4.4566612266753614E7 ; 1.2077656852429764E9 ; 2.9734014617284913E9 ; 7.349866289202014E10 ; 0.0
70 ; 4.456645971181116E7 ; 1.2078246467147322E9 ; 3.017968073995245E9 ; 7.470642857726312E10 ; 0.0
71 ; 4.456531549859603E7 ; 1.2078839216719182E9 ; 3.062534533707056E9 ; 7.591425322397786E10 ; 0.0
72 ; 4.458477628366105E7 ; 1.2079434965921767E9 ; 3.107099849205652E9 ; 7.712213714564978E10 ; 0.0
73 ; 4.458307564239134E7 ; 1.208003358362E9 ; 3.151684625489313E9 ; 7.833008064224196E10 ; 0.0
74 ; 4.458807484548002E7 ; 1.2080634942637699E9 ; 3.1962677011317043E9 ; 7.953808400060396E10 ; 0.0
75 ; 4.459558312892662E7 ; 1.208123891963006E9 ; 3.2408557759771843E9 ; 8.074614749486772E10 ; 0.0
76 ; 4.4594389644813165E7 ; 1.208184539495841E9 ; 3.285451359106111E9 ; 8.195427138683073E10 ; 0.0
77 ; 4.460661833155338E7 ; 1.2082454252567515E9 ; 3.330045748750924E9 ; 8.316245592632657E10 ; 0.0
78 ; 4.459228402448873E7 ; 1.2083065379865563E9 ; 3.3746523670824776E9 ; 8.437070135158331E10 ; 0.0
79 ; 4.4575358538815156E7 ; 1.2083678667606978E9 ; 3.4192446511069665E9 ; 8.557900788956987E10 ; 0.0
80 ; 4.4566041102357075E7 ; 1.2084294009778185E9 ; 3.4638200096457815E9 ; 8.678737575633057E10 ; 0.0
81 ; 4.456164000462211E7 ; 1.2084911303486376E9 ; 3.5083860507481384E9 ; 8.799580515730838E10 ; 0.0
82 ; 4.454738800822429E7 ; 1.2085530448851357E9 ; 3.5529476907527604E9 ; 8.920429628765701E10 ; 0.0
83 ; 4.453906234535209E7 ; 1.208615134890051E9 ; 3.597495078760985E9 ; 9.041284933254214E10 ; 0.0
84 ; 4.452928793880861E7 ; 1.208677390946685E9 ; 3.642034141106337E9 ; 9.162146446743219E10 ; 0.0
85 ; 4.451185581472309E7 ; 1.2087398039090254E9 ; 3.6865634290451455E9 ; 9.283014185837888E10 ; 0.0
86 ; 4.449734347438076E7 ; 1.208802364892174E9 ; 3.7310752848598685E9 ; 9.40388816622879E10 ; 0.0
87 ; 4.448539167085543E7 ; 1.2088650652630877E9 ; 3.7755726283342495E9 ; 9.524768402718008E10 ; 0.0
88 ; 4.4470793034584664E7 ; 1.2089278966316235E9 ; 3.820058020005105E9 ; 9.645654909244318E10 ; 0.0
89 ; 4.445439295999999E7 ; 1.2089908508418818E9 ; 3.8645288130396895E9 ; 9.76654769890748E10 ; 0.0
90 ; 4.4446242982831344E7 ; 1.2090539199638462E9 ; 3.9089832059996896E9 ; 9.887446783991669E10 ; 0.0
91 ; 4.442458354491522E7 ; 1.209117096285316E9 ; 3.953429448982521E9 ; 1.0008352175988054E11 ; 0.0
92 ; 4.441552233717752E7 ; 1.209180372304115E9 ; 3.9978540325274363E9 ; 1.0129263885616585E11 ; 0.0
93 ; 4.439697751601976E7 ; 1.2092437407205842E9 ; 4.042269554864614E9 ; 1.0250181922846996E11 ; 0.0
94 ; 4.437616529637795E7 ; 1.2093071944303398E9 ; 4.086666532380634E9 ; 1.0371106296919054E11 ; 0.0
95 ; 4.435927395192198E7 ; 1.2093707265172954E9 ; 4.131042697677012E9 ; 1.0492037016362088E11 ; 0.0
96 ; 4.4341628690598935E7 ; 1.2094343302469392E9 ; 4.175401971628934E9 ; 1.0612974089013817E11 ; 0.0
97 ; 4.4325421406590685E7 ; 1.20949799905986E9 ; 4.219743600319533E9 ; 1.073391752203851E11 ; 0.0
98 ; 4.4307053065625444E7 ; 1.2095617265655107E9 ; 4.2640690217261233E9 ; 1.0854867321944496E11 ; 0.0
99 ; 4.428938666236896E7 ; 1.2096255065362086E9 ; 4.308376074791749E9 ; 1.0975823494601047E11 ; 0.0
100 ; 4.427441472015557E7 ; 1.2096893329013586E9 ; 4.352665461454118E9 ; 1.1096786045254668E11 ; 0.0
101 ; 4.4254439826726094E7 ; 1.2097531997418933E9 ; 4.3969398761742735E9 ; 1.1217754978544803E11 ; 0.0
102 ; 4.423474977681731E7 ; 1.2098171012849276E9 ; 4.441194316000999E9 ; 1.1338730298518993E11 ; 0.0
103 ; 4.421278347169393E7 ; 1.2098810318986125E9 ; 4.485429065777817E9 ; 1.1459712008647485E11 ; 0.0
104 ; 4.418725064918598E7 ; 1.2099449860871875E9 ; 4.529641849249511E9 ; 1.1580700111837346E11 ; 0.0
105 ; 4.417205543289926E7 ; 1.2100089584862218E9 ; 4.573829099898697E9 ; 1.1701694610446065E11 ; 0.0
106 ; 4.4150897251738615E7 ; 1.2100729438580372E9 ; 4.618001155331596E9 ; 1.1822695506294687E11 ; 0.0
107 ; 4.411974735909988E7 ; 1.210136937087307E9 ; 4.662152052583335E9 ; 1.194370280068049E11 ; 0.0
108 ; 4.410077844233764E7 ; 1.210200933176826E9 ; 4.706271799942435E9 ; 1.2064716494389221E11 ; 0.0
109 ; 4.4084889902126804E7 ; 1.2102649272434397E9 ; 4.750372578384773E9 ; 1.2185736587706903E11 ; 0.0
110 ; 4.406427372675436E7 ; 1.210328914514133E9 ; 4.7944574682869005E9 ; 1.2306763080431247E11 ; 0.0
111 ; 4.403189739475627E7 ; 1.21039289032227E9 ; 4.838521742013655E9 ; 1.242779597188266E11 ; 0.0
112 ; 4.402004369590237E7 ; 1.2104568501039762E9 ; 4.882553639408411E9 ; 1.2548835260914886E11 ; 0.0
113 ; 4.399110430831979E7 ; 1.2105207893946633E9 ; 4.926573683104314E9 ; 1.2669880945925284E11 ; 0.0
114 ; 4.396137833381738E7 ; 1.210584703825685E9 ; 4.970564787412634E9 ; 1.279093302486475E11 ; 0.0
115 ; 4.394212710184353E7 ; 1.2106485891211243E9 ; 5.014526165746451E9 ; 1.2911991495247319E11 ; 0.0
116 ; 4.39148637709761E7 ; 1.2107124410947022E9 ; 5.058468292848295E9 ; 1.3033056354159431E11 ; 0.0
117 ; 4.389624617015891E7 ; 1.210776255646807E9 ; 5.102383156619271E9 ; 1.3154127598268901E11 ; 0.0
118 ; 4.386312066974161E7 ; 1.2108400287616372E9 ; 5.146279402789431E9 ; 1.3275205223833582E11 ; 0.0
119 ; 4.3837505418404184E7 ; 1.2109037565044532E9 ; 5.190142523459172E9 ; 1.3396289226709746E11 ; 0.0
120 ; 4.3816968809245266E7 ; 1.2109674350189357E9 ; 5.233980028877577E9 ; 1.3517379602360191E11 ; 0.0
121 ; 4.378656499425259E7 ; 1.2110310605246441E9 ; 5.277796997686822E9 ; 1.3638476345862085E11 ; 0.0
122 ; 4.376076406213868E7 ; 1.2110946293145735E9 ; 5.321583562681074E9 ; 1.375957945191455E11 ; 0.0
123 ; 4.373077840552303E7 ; 1.2111581377528024E9 ; 5.365344326743213E9 ; 1.3880688914846008E11 ; 0.0
124 ; 4.370705847620473E7 ; 1.2112215822722316E9 ; 5.409075105148736E9 ; 1.400180472862129E11 ; 0.0
125 ; 4.366703067711007E7 ; 1.21128495937241E9 ; 5.452782163624941E9 ; 1.412292688684851E11 ; 0.0
126 ; 4.364025112991215E7 ; 1.2113482656174407E9 ; 5.496449194302051E9 ; 1.424405538278575E11 ; 0.0
127 ; 4.3615507412673004E7 ; 1.2114114976339662E9 ; 5.540089445431963E9 ; 1.4365190209347495E11 ; 0.0
128 ; 4.358012254417972E7 ; 1.2114746521092324E9 ; 5.583704952844636E9 ; 1.4486331359110892E11 ; 0.0
129 ; 4.3553959215110056E7 ; 1.2115377257892222E9 ; 5.627285075388816E9 ; 1.4607478824321814E11 ; 0.0
130 ; 4.351656285154936E7 ; 1.2116007154768617E9 ; 5.670839034603926E9 ; 1.4728632596900735E11 ; 0.0
131 ; 4.346490825673536E7 ; 1.2116636180302916E9 ; 5.714355597455475E9 ; 1.4849792668448422E11 ; 0.0
132 ; 4.343081361568305E7 ; 1.211726430361205E9 ; 5.757820505712211E9 ; 1.4970959030251453E11 ; 0.0
133 ; 4.3384247839583635E7 ; 1.211789149433246E9 ; 5.801251319327893E9 ; 1.5092131673287573E11 ; 0.0
134 ; 4.3339429042885944E7 ; 1.211851772260467E9 ; 5.844635567167477E9 ; 1.52133105882309E11 ; 0.0
135 ; 4.329078822169743E7 ; 1.2119142959058459E9 ; 5.887974996210362E9 ; 1.5334495765456946E11 ; 0.0
136 ; 4.324205724887657E7 ; 1.2119767174798558E9 ; 5.93126578443206E9 ; 1.545568719504753E11 ; 0.0
137 ; 4.3201183480110236E7 ; 1.2120390341390872E9 ; 5.974507841680937E9 ; 1.5576884866795517E11 ; 0.0
138 ; 4.315126788600303E7 ; 1.2121012430849237E9 ; 6.017709025161047E9 ; 1.5698088770209427E11 ; 0.0
139 ; 4.310063652334001E7 ; 1.2121633415622613E9 ; 6.06086029304705E9 ; 1.581929889451792E11 ; 0.0
140 ; 4.305713377661023E7 ; 1.2122253268582802E9 ; 6.103960929570391E9 ; 1.5940515228674146E11 ; 0.0
141 ; 4.3005765815310925E7 ; 1.2122871963012567E9 ; 6.147018063347001E9 ; 1.6061737761359973E11 ; 0.0
142 ; 4.2958403961354494E7 ; 1.2123489472594209E9 ; 6.190023829162312E9 ; 1.61829664809901E11 ; 0.0
143 ; 4.290935325425343E7 ; 1.212410577139854E9 ; 6.232982233123666E9 ; 1.6304201375716043E11 ; 0.0
144 ; 4.2856079197160706E7 ; 1.212472083387427E9 ; 6.275891586377919E9 ; 1.642544243343003E11 ; 0.0
145 ; 4.283435736426962E7 ; 1.2125334634837775E9 ; 6.31874766557508E9 ; 1.654668964176877E11 ; 0.0
146 ; 4.279634809589038E7 ; 1.2125947149463208E9 ; 6.361582022939349E9 ; 1.6667942988117148E11 ; 0.0
147 ; 4.27574229281822E7 ; 1.212655835327299E9 ; 6.404378371035239E9 ; 1.678920245961178E11 ; 0.0
148 ; 4.2732035397452936E7 ; 1.2127168222128649E9 ; 6.447135793963422E9 ; 1.691046804314451E11 ; 0.0
149 ; 4.269551710607813E7 ; 1.2127776732221923E9 ; 6.489867829360875E9 ; 1.7031739725365796E11 ; 0.0
150 ; 4.2663906585290514E7 ; 1.2128383860066261E9 ; 6.532563346466953E9 ; 1.7153017492688016E11 ; 0.0
151 ; 4.263072025076991E7 ; 1.212898958248858E9 ; 6.575227253052244E9 ; 1.7274301331288678E11 ; 0.0
152 ; 4.2599770821551986E7 ; 1.2129593876621294E9 ; 6.617857973303014E9 ; 1.7395591227113565E11 ; 0.0
153 ; 4.25614070536944E7 ; 1.2130196719894671E9 ; 6.660457744124566E9 ; 1.751688716587978E11 ; 0.0
154 ; 4.2527743699340284E7 ; 1.2130798090029414E9 ; 6.703019151178261E9 ; 1.7638189133078726E11 ; 0.0
155 ; 4.249531983708284E7 ; 1.213139796502953E9 ; 6.745546894877601E9 ; 1.775949711397902E11 ; 0.0
156 ; 4.246242184178795E7 ; 1.2131996323175435E9 ; 6.788042214714684E9 ; 1.7880811093629315E11 ; 0.0
157 ; 4.2424334354537435E7 ; 1.2132593143017287E9 ; 6.830504636556472E9 ; 1.800213105686107E11 ; 0.0
158 ; 4.238958674767855E7 ; 1.2133188403368583E9 ; 6.872928970911009E9 ; 1.812345698829124E11 ; 0.0
159 ; 4.235743239690346E7 ; 1.213378208329992E9 ; 6.915318557658688E9 ; 1.8244788872324927E11 ; 0.0
160 ; 4.232183712324613E7 ; 1.2134374162133048E9 ; 6.957675990055591E9 ; 1.8366126693157925E11 ; 0.0
161 ; 4.228454176951497E7 ; 1.2134964619435048E9 ; 6.999997827178837E9 ; 1.8487470434779257E11 ; 0.0
162 ; 4.225100953535596E7 ; 1.2135553435012755E9 ; 7.042282368948352E9 ; 1.8608820080973608E11 ; 0.0
163 ; 4.221355577861886E7 ; 1.2136140588907373E9 ; 7.084533378483707E9 ; 1.8730175615323737E11 ; 0.0
164 ; 4.21726189129254E7 ; 1.2136726061389236E9 ; 7.126746934262326E9 ; 1.885153702121281E11 ; 0.0
165 ; 4.214057186807007E7 ; 1.2137309832952785E9 ; 7.168919553175252E9 ; 1.8972904281826703E11 ; 0.0
166 ; 4.21085273014811E7 ; 1.21378918843117E9 ; 7.211060125043322E9 ; 1.9094277380156232E11 ; 0.0
167 ; 4.207067621420866E7 ; 1.2138472196394181E9 ; 7.253168652344803E9 ; 1.921565629899935E11 ; 0.0
168 ; 4.2034796753986426E7 ; 1.2139050750338416E9 ; 7.295239328559011E9 ; 1.933704102096329E11 ; 0.0
169 ; 4.199925809383255E7 ; 1.2139627527488174E9 ; 7.337274125312998E9 ; 1.9458431528466675E11 ; 0.0
170 ; 4.1958320477044165E7 ; 1.2140202509388568E9 ; 7.379273383406831E9 ; 1.9579827803741556E11 ; 0.0
171 ; 4.192350697916104E7 ; 1.2140775677781932E9 ; 7.421231703883875E9 ; 1.970122982883544E11 ; 0.0
172 ; 4.1885424815609954E7 ; 1.2141347014603858E9 ; 7.463155210863036E9 ; 1.982263758561326E11 ; 0.0
173 ; 4.185180828752601E7 ; 1.2141916501979358E9 ; 7.505040635678646E9 ; 1.99440510557593E11 ; 0.0
174 ; 4.1830508250401154E7 ; 1.2142484122219143E9 ; 7.546892443966172E9 ; 2.0065470220779092E11 ; 0.0
175 ; 4.1810123496542096E7 ; 1.2143049857816036E9 ; 7.588722952216574E9 ; 2.0186895062001285E11 ; 0.0
176 ; 4.17809319537728E7 ; 1.21436136914415E9 ; 7.630533075713116E9 ; 2.0308325560579446E11 ; 0.0
177 ; 4.1755644908965975E7 ; 1.2144175605942268E9 ; 7.672314007666888E9 ; 2.0429761697493863E11 ; 0.0
178 ; 4.174027549870684E7 ; 1.2144735584337103E9 ; 7.714069652575854E9 ; 2.0551203453553287E11 ; 0.0
179 ; 4.1713749688759804E7 ; 1.2145293609813645E9 ; 7.755809928074561E9 ; 2.0672650809396658E11 ; 0.0
180 ; 4.169084488579896E7 ; 1.214584966572537E9 ; 7.797523677763321E9 ; 2.0794103745494794E11 ; 0.0
181 ; 4.167188292904595E7 ; 1.214640373558865E9 ; 7.83921452264912E9 ; 2.0915562242152048E11 ; 0.0
182 ; 4.164849977957208E7 ; 1.2146955803079894E9 ; 7.880886405578166E9 ; 2.1037026279507935E11 ; 0.0
183 ; 4.162431756648778E7 ; 1.2147505852032797E9 ; 7.9225349053577385E9 ; 2.1158495837538733E11 ; 0.0
184 ; 4.160037674325471E7 ; 1.2148053866435668E9 ; 7.964159222924226E9 ; 2.127997089605906E11 ; 0.0
185 ; 4.157469019387321E7 ; 1.214859983042885E9 ; 8.00575959966748E9 ; 2.1401451434723416E11 ; 0.0
186 ; 4.155656420671117E7 ; 1.2149143728302207E9 ; 8.047334289861354E9 ; 2.1522937433027704E11 ; 0.0
187 ; 4.1535291394071266E7 ; 1.2149685544492724E9 ; 8.088890854068065E9 ; 2.1644428870310727E11 ; 0.0
188 ; 4.1512871758242086E7 ; 1.2150225263582134E9 ; 8.130426145462136E9 ; 2.1765925725755655E11 ; 0.0
189 ; 4.149088036196089E7 ; 1.2150762870294676E9 ; 8.171939017220378E9 ; 2.1887427978391476E11 ; 0.0
190 ; 4.146894617184761E7 ; 1.2151298349494874E9 ; 8.213429897582338E9 ; 2.2008935607094424E11 ; 0.0
191 ; 4.144307808126019E7 ; 1.2151831686185427E9 ; 8.254898843754186E9 ; 2.2130448590589374E11 ; 0.0
192 ; 4.14128816502109E7 ; 1.215236286550513E9 ; 8.296341921835445E9 ; 2.2251966907451227E11 ; 0.0
193 ; 4.140087776127699E7 ; 1.2152891872726898E9 ; 8.337754803485657E9 ; 2.2373490536106277E11 ; 0.0
194 ; 4.1373672605471276E7 ; 1.215341869325581E9 ; 8.379155681246934E9 ; 2.2495019454833545E11 ; 0.0
195 ; 4.1356984262612835E7 ; 1.215394331262725E9 ; 8.420529353852406E9 ; 2.2616553641766104E11 ; 0.0
196 ; 4.132995077527596E7 ; 1.2154465716505094E9 ; 8.461886338115019E9 ; 2.2738093074892377E11 ; 0.0
