CSV File for the Network on Day 95
1 - Minute m 
2 - Power Consumed at minute m 
3 - Power Produced at minute m 
4 - Energy Consumed since the beginning of the day 
5 - Energy Produced since the beginning of the day 
6 - Energy Lost since the beginning of the day 
 
0 ; 3.870173746291068E7 ; 6.351470916971914E8 ; 0.0 ; 0.0 ; 0.0
1 ; 3.874011652183069E7 ; 6.360579494651523E8 ; 3.870173746291068E7 ; 6.351470916971914E8 ; 0.0
2 ; 3.878032853773232E7 ; 6.38822195739397E8 ; 7.744185398474137E7 ; 1.2712050411623435E9 ; 0.0
3 ; 3.8833488086187564E7 ; 6.434398466282675E8 ; 1.162221825224737E8 ; 1.9100272369017406E9 ; 0.0
4 ; 3.889332019139071E7 ; 6.499109165650202E8 ; 1.5505567060866126E8 ; 2.5534670835300083E9 ; 0.0
5 ; 3.895926371094368E7 ; 6.582354182287686E8 ; 1.93948990800052E8 ; 3.2033780000950284E9 ; 0.0
6 ; 3.905178555019925E7 ; 6.684133624737245E8 ; 2.3290825451099566E8 ; 3.861613418323797E9 ; 0.0
7 ; 3.918390218070012E7 ; 6.804447582676405E8 ; 2.719600400611949E8 ; 4.530026780797522E9 ; 0.0
8 ; 3.936506328753368E7 ; 6.943296126402688E8 ; 3.11143942241895E8 ; 5.210471539065162E9 ; 0.0
9 ; 3.964510783163528E7 ; 7.100679306425229E8 ; 3.505090055294287E8 ; 5.904801151705431E9 ; 0.0
10 ; 4.008652372433691E7 ; 7.276597153168985E8 ; 3.90154113361064E8 ; 6.614869082347954E9 ; 0.0
11 ; 4.0774114919992045E7 ; 7.471049676795602E8 ; 4.3024063708540094E8 ; 7.342528797664852E9 ; 0.0
12 ; 4.188162998946881E7 ; 7.68403686714343E8 ; 4.7101475200539297E8 ; 8.089633765344412E9 ; 0.0
13 ; 4.294992337441534E7 ; 7.915558693787515E8 ; 5.128963819948618E8 ; 8.858037452058754E9 ; 0.0
14 ; 4.306855724996034E7 ; 8.165615106218727E8 ; 5.558463053692771E8 ; 9.649593321437506E9 ; 0.0
15 ; 4.312061119032696E7 ; 8.434206034139538E8 ; 5.989148626192374E8 ; 1.0466154832059378E10 ; 0.0
16 ; 4.3173777236113496E7 ; 8.721331387872424E8 ; 6.420354738095644E8 ; 1.1309575435473331E10 ; 0.0
17 ; 4.3226732024303705E7 ; 9.026991058875269E8 ; 6.852092510456779E8 ; 1.2181708574260574E10 ; 0.0
18 ; 4.3273505892605275E7 ; 9.351184920356933E8 ; 7.284359830699816E8 ; 1.3084407680148102E10 ; 0.0
19 ; 4.3328857861013E7 ; 9.693912827984855E8 ; 7.717094889625869E8 ; 1.4019526172183796E10 ; 0.0
20 ; 4.338132251368325E7 ; 1.0055174620675615E9 ; 8.150383468235999E8 ; 1.498891745498228E10 ; 0.0
21 ; 4.3430386657942384E7 ; 1.043497012145857E9 ; 8.584196693372831E8 ; 1.5994434917049843E10 ; 0.0
22 ; 4.34791357807274E7 ; 1.083329913840211E9 ; 9.018500559952255E8 ; 1.70379319291957E10 ; 0.0
23 ; 4.353659421596034E7 ; 1.1250161465591698E9 ; 9.453291917759529E8 ; 1.812126184303591E10 ; 0.0
24 ; 4.358206194894581E7 ; 1.1685556884148726E9 ; 9.888657859919133E8 ; 1.924627798959508E10 ; 0.0
25 ; 4.363264052997516E7 ; 1.206076761717029E9 ; 1.0324478479408591E9 ; 2.0414833678009953E10 ; 0.0
26 ; 4.368634596339367E7 ; 1.206100629301092E9 ; 1.0760804884708343E9 ; 2.1620910439726982E10 ; 0.0
27 ; 4.3738210924295895E7 ; 1.206125881785369E9 ; 1.119766834434228E9 ; 2.2827011069028072E10 ; 0.0
28 ; 4.378486894740218E7 ; 1.2061524931592774E9 ; 1.1635050453585238E9 ; 2.4033136950813442E10 ; 0.0
29 ; 4.383083528304619E7 ; 1.2061804366494536E9 ; 1.207289914305926E9 ; 2.523928944397272E10 ; 0.0
30 ; 4.389026662588712E7 ; 1.206209684824591E9 ; 1.2511207495889723E9 ; 2.6445469880622173E10 ; 0.0
31 ; 4.39276933755244E7 ; 1.2062402096977317E9 ; 1.2950110162148595E9 ; 2.7651679565446766E10 ; 0.0
32 ; 4.397578002285843E7 ; 1.2062719828253622E9 ; 1.338938709590384E9 ; 2.8857919775144497E10 ; 0.0
33 ; 4.402167457552452E7 ; 1.20630497540275E9 ; 1.3829144896132424E9 ; 3.006419175796986E10 ; 0.0
34 ; 4.406697024157471E7 ; 1.2063391583550534E9 ; 1.426936164188767E9 ; 3.1270496733372612E10 ; 0.0
35 ; 4.411188030450952E7 ; 1.2063745024238243E9 ; 1.4710031344303417E9 ; 3.2476835891727665E10 ; 0.0
36 ; 4.414923763489561E7 ; 1.206410978248609E9 ; 1.5151150147348514E9 ; 3.368321039415149E10 ; 0.0
37 ; 4.4187695951603696E7 ; 1.20644855644343E9 ; 1.559264252369747E9 ; 3.48896213724001E10 ; 0.0
38 ; 4.422955331211617E7 ; 1.2064872076680212E9 ; 1.6034519483213506E9 ; 3.609606992884353E10 ; 0.0
39 ; 4.42645135290893E7 ; 1.2065269026937408E9 ; 1.6476815016334667E9 ; 3.730255713651155E10 ; 0.0
40 ; 4.429634709534407E7 ; 1.2065676124641552E9 ; 1.691946015162556E9 ; 3.850908403920529E10 ; 0.0
41 ; 4.433294112753618E7 ; 1.20660930815035E9 ; 1.7362423622579E9 ; 3.971565165166945E10 ; 0.0
42 ; 4.4363715915621415E7 ; 1.206651961201058E9 ; 1.780575303385436E9 ; 4.09222609598198E10 ; 0.0
43 ; 4.4397350595514864E7 ; 1.2066955433877492E9 ; 1.8249390193010576E9 ; 4.212891292102086E10 ; 0.0
44 ; 4.442823467036174E7 ; 1.2067400268448465E9 ; 1.8693363698965724E9 ; 4.333560846440861E10 ; 0.0
45 ; 4.4450456565247856E7 ; 1.2067853841052752E9 ; 1.913764604566934E9 ; 4.4542348491253456E10 ; 0.0
46 ; 4.447284399494504E7 ; 1.2068315881315582E9 ; 1.958215061132182E9 ; 4.5749133875358734E10 ; 0.0
47 ; 4.449874979364348E7 ; 1.2068786123427033E9 ; 2.002687905127127E9 ; 4.6955965463490295E10 ; 0.0
48 ; 4.451459074557529E7 ; 1.206926430637119E9 ; 2.0471866549207704E9 ; 4.8162844075833E10 ; 0.0
49 ; 4.453654313022445E7 ; 1.2069750174118252E9 ; 2.0917012456663456E9 ; 4.9369770506470116E10 ; 0.0
50 ; 4.454310754383168E7 ; 1.2070243475782018E9 ; 2.13623778879657E9 ; 5.057674552388194E10 ; 0.0
51 ; 4.456159855199915E7 ; 1.2070743965745463E9 ; 2.1807808963404016E9 ; 5.1783769871460144E10 ; 0.0
52 ; 4.457797752222913E7 ; 1.207125140375679E9 ; 2.2253424948924007E9 ; 5.299084426803469E10 ; 0.0
53 ; 4.459194244279146E7 ; 1.2071765554998515E9 ; 2.26992047241463E9 ; 5.419796940841037E10 ; 0.0
54 ; 4.46090271037323E7 ; 1.2072286190131936E9 ; 2.3145124148574214E9 ; 5.5405145963910225E10 ; 0.0
55 ; 4.461820868000584E7 ; 1.2072813085319278E9 ; 2.3591214419611535E9 ; 5.6612374582923416E10 ; 0.0
56 ; 4.463523903265583E7 ; 1.207334602222574E9 ; 2.4037396506411595E9 ; 5.7819655891455345E10 ; 0.0
57 ; 4.464538051982223E7 ; 1.2073884788003454E9 ; 2.4483748896738153E9 ; 5.902699049367792E10 ; 0.0
58 ; 4.465745837850782E7 ; 1.207442917525939E9 ; 2.4930202701936374E9 ; 6.0234378972478264E10 ; 0.0
59 ; 4.4673230319019645E7 ; 1.2074978982008998E9 ; 2.537677728572145E9 ; 6.14418218900042E10 ; 0.0
60 ; 4.468483454671861E7 ; 1.2075534011617322E9 ; 2.582350958891165E9 ; 6.26493197882051E10 ; 0.0
61 ; 4.4689938771812096E7 ; 1.2076094072729154E9 ; 2.6270357934378834E9 ; 6.385687318936684E10 ; 0.0
62 ; 4.471145395262085E7 ; 1.2076658979189749E9 ; 2.6717257322096953E9 ; 6.5064482596639755E10 ; 0.0
63 ; 4.472134066999288E7 ; 1.2077228549957404E9 ; 2.7164371861623163E9 ; 6.627214849455873E10 ; 0.0
64 ; 4.472600857792297E7 ; 1.2077802609009197E9 ; 2.7611585268323092E9 ; 6.7479871349554474E10 ; 0.0
65 ; 4.473728877104742E7 ; 1.2078380985240967E9 ; 2.805884535410232E9 ; 6.868765161045539E10 ; 0.0
66 ; 4.474143034200563E7 ; 1.2078963512362628E9 ; 2.8506218241812797E9 ; 6.989548970897949E10 ; 0.0
67 ; 4.4750837829066455E7 ; 1.2079550028789718E9 ; 2.8953632545232854E9 ; 7.110338606021576E10 ; 0.0
68 ; 4.476041850132709E7 ; 1.2080140377532017E9 ; 2.9401140923523517E9 ; 7.231134106309473E10 ; 0.0
69 ; 4.4771555506436765E7 ; 1.2080734406080043E9 ; 2.9848745108536787E9 ; 7.351935510084793E10 ; 0.0
70 ; 4.477844473323663E7 ; 1.2081331966290064E9 ; 3.0296460663601155E9 ; 7.472742854145593E10 ; 0.0
71 ; 4.478325089337457E7 ; 1.2081932914268231E9 ; 3.0744245110933523E9 ; 7.593556173808495E10 ; 0.0
72 ; 4.47898260673744E7 ; 1.208253711025441E9 ; 3.1192077619867268E9 ; 7.714375502951176E10 ; 0.0
73 ; 4.479542445284771E7 ; 1.208314441850614E9 ; 3.163997588054101E9 ; 7.83520087405372E10 ; 0.0
74 ; 4.480276106088682E7 ; 1.2083754707183168E9 ; 3.2087930125069485E9 ; 7.956032318238782E10 ; 0.0
75 ; 4.480999914094815E7 ; 1.2084367848232903E9 ; 3.2535957735678353E9 ; 8.076869865310614E10 ; 0.0
76 ; 4.481590554157792E7 ; 1.2084983717277112E9 ; 3.2984057727087836E9 ; 8.197713543792943E10 ; 0.0
77 ; 4.4815190484741814E7 ; 1.2085602193500142E9 ; 3.3432216782503614E9 ; 8.318563380965714E10 ; 0.0
78 ; 4.480657016855707E7 ; 1.2086223159538884E9 ; 3.388036868735103E9 ; 8.439419402900716E10 ; 0.0
79 ; 4.4803085020561986E7 ; 1.2086846501374657E9 ; 3.4328434389036603E9 ; 8.560281634496104E10 ; 0.0
80 ; 4.479629799130575E7 ; 1.2087472108227234E9 ; 3.4776465239242225E9 ; 8.681150099509851E10 ; 0.0
81 ; 4.4788573379752904E7 ; 1.2088099872451074E9 ; 3.5224428219155283E9 ; 8.802024820592123E10 ; 0.0
82 ; 4.477535436854376E7 ; 1.208872968943393E9 ; 3.5672313952952814E9 ; 8.922905819316634E10 ; 0.0
83 ; 4.477280135153165E7 ; 1.2089361457497847E9 ; 3.612006749663825E9 ; 9.043793116210973E10 ; 0.0
84 ; 4.4755406109571464E7 ; 1.2089995077802706E9 ; 3.6567795510153565E9 ; 9.164686730785951E10 ; 0.0
85 ; 4.4741990855793834E7 ; 1.209063045425227E9 ; 3.701534957124928E9 ; 9.285586681563979E10 ; 0.0
86 ; 4.473387737473574E7 ; 1.2091267493402817E9 ; 3.746276947980722E9 ; 9.406492986106502E10 ; 0.0
87 ; 4.471921435855435E7 ; 1.209190610437435E9 ; 3.791010825355458E9 ; 9.52740566104053E10 ; 0.0
88 ; 4.470530989128805E7 ; 1.2092546198764417E9 ; 3.835730039714012E9 ; 9.648324722084274E10 ; 0.0
89 ; 4.469674683839099E7 ; 1.2093187690564485E9 ; 3.8804353496053004E9 ; 9.769250184071918E10 ; 0.0
90 ; 4.468325428327426E7 ; 1.2093830496078882E9 ; 3.9251320964436913E9 ; 9.890182060977562E10 ; 0.0
91 ; 4.466703095414448E7 ; 1.20944745338463E9 ; 3.9698153507269654E9 ; 1.0011120365938351E11 ; 0.0
92 ; 4.464933946645448E7 ; 1.2095119724563766E9 ; 4.01448238168111E9 ; 1.0132065111276814E11 ; 0.0
93 ; 4.463949797801581E7 ; 1.2095765991013105E9 ; 4.0591317211475644E9 ; 1.0253016308522452E11 ; 0.0
94 ; 4.462139105481891E7 ; 1.209641325798983E9 ; 4.1037712191255803E9 ; 1.0373973968432582E11 ; 0.0
95 ; 4.460812603191614E7 ; 1.2097061452234378E9 ; 4.1483926101803994E9 ; 1.049493810101248E11 ; 0.0
96 ; 4.459614545412793E7 ; 1.2097710502365704E9 ; 4.1930007362123156E9 ; 1.0615908715534824E11 ; 0.0
97 ; 4.457891631476216E7 ; 1.2098360338817115E9 ; 4.2375968816664433E9 ; 1.0736885820558481E11 ; 0.0
98 ; 4.456518478056678E7 ; 1.2099010893774352E9 ; 4.2821757979812055E9 ; 1.0857869423946652E11 ; 0.0
99 ; 4.4546478445133135E7 ; 1.2099662101115808E9 ; 4.326740982761772E9 ; 1.0978859532884396E11 ; 0.0
100 ; 4.453660431042236E7 ; 1.2100313896354842E9 ; 4.371287461206905E9 ; 1.1099856153895555E11 ; 0.0
101 ; 4.451586443248387E7 ; 1.210096621658415E9 ; 4.415824065517327E9 ; 1.1220859292859103E11 ; 0.0
102 ; 4.449632291868885E7 ; 1.2101619000422115E9 ; 4.460339929949811E9 ; 1.1341868955024945E11 ; 0.0
103 ; 4.447874482266622E7 ; 1.2102272187961068E9 ; 4.5048362528685E9 ; 1.1462885145029166E11 ; 0.0
104 ; 4.445743932514444E7 ; 1.2102925720717418E9 ; 4.549314997691166E9 ; 1.1583907866908777E11 ; 0.0
105 ; 4.443751945410446E7 ; 1.210357954158358E9 ; 4.593772437016311E9 ; 1.1704937124115952E11 ; 0.0
106 ; 4.442261406491934E7 ; 1.2104233594781666E9 ; 4.638209956470415E9 ; 1.1825972919531787E11 ; 0.0
107 ; 4.440485026680762E7 ; 1.2104887825818844E9 ; 4.682632570535335E9 ; 1.1947015255479604E11 ; 0.0
108 ; 4.438327845024742E7 ; 1.210554218144433E9 ; 4.727037420802142E9 ; 1.2068064133737791E11 ; 0.0
109 ; 4.436458050785728E7 ; 1.2106196609607973E9 ; 4.77142069925239E9 ; 1.2189119555552235E11 ; 0.0
110 ; 4.4341309571764015E7 ; 1.2106851059420342E9 ; 4.815785279760247E9 ; 1.2310181521648315E11 ; 0.0
111 ; 4.431983829233989E7 ; 1.2107505481114297E9 ; 4.860126589332011E9 ; 1.2431250032242519E11 ; 0.0
112 ; 4.430315115354596E7 ; 1.2108159826007957E9 ; 4.9044464276243515E9 ; 1.2552325087053662E11 ; 0.0
113 ; 4.42852191434391E7 ; 1.2108814046469054E9 ; 4.948749578777898E9 ; 1.2673406685313742E11 ; 0.0
114 ; 4.425793111514547E7 ; 1.2109468095880597E9 ; 4.993034797921337E9 ; 1.2794494825778433E11 ; 0.0
115 ; 4.422604624612536E7 ; 1.2110121928607793E9 ; 5.037292729036483E9 ; 1.2915589506737239E11 ; 0.0
116 ; 4.420696758096359E7 ; 1.2110775499966211E9 ; 5.081518775282608E9 ; 1.3036690726023317E11 ; 0.0
117 ; 4.4184108585953325E7 ; 1.2111428766191106E9 ; 5.125725742863571E9 ; 1.315779848102298E11 ; 0.0
118 ; 4.415351518017955E7 ; 1.211208168440789E9 ; 5.169909851449525E9 ; 1.327891276868489E11 ; 0.0
119 ; 4.414162888068877E7 ; 1.2112734212603676E9 ; 5.214063366629704E9 ; 1.340003358552897E11 ; 0.0
120 ; 4.411445144590673E7 ; 1.21133863095999E9 ; 5.258204995510393E9 ; 1.3521160927655006E11 ; 0.0
121 ; 4.40857126812941E7 ; 1.2114037935025923E9 ; 5.3023194469563E9 ; 1.3642294790751006E11 ; 0.0
122 ; 4.406662535294375E7 ; 1.2114689049293635E9 ; 5.346405159637594E9 ; 1.3763435170101263E11 ; 0.0
123 ; 4.4038547761222444E7 ; 1.2115339613572977E9 ; 5.390471784990538E9 ; 1.38845820605942E11 ; 0.0
124 ; 4.400408927149671E7 ; 1.2115989589768353E9 ; 5.4345103327517605E9 ; 1.400573545672993E11 ; 0.0
125 ; 4.397727892608717E7 ; 1.2116638940495958E9 ; 5.478514422023257E9 ; 1.4126895352627612E11 ; 0.0
126 ; 4.3951272298768006E7 ; 1.2117287629061868E9 ; 5.522491700949345E9 ; 1.424806174203257E11 ; 0.0
127 ; 4.392808975026754E7 ; 1.2117935619440992E9 ; 5.566442973248113E9 ; 1.436923461832319E11 ; 0.0
128 ; 4.3902240880855456E7 ; 1.2118582876256766E9 ; 5.610371062998381E9 ; 1.44904139745176E11 ; 0.0
129 ; 4.387445506780441E7 ; 1.2119229364761586E9 ; 5.654273303879236E9 ; 1.4611599803280167E11 ; 0.0
130 ; 4.3844586921221845E7 ; 1.211987505081797E9 ; 5.698147758947041E9 ; 1.4732792096927783E11 ; 0.0
131 ; 4.379143565038823E7 ; 1.2120519900880392E9 ; 5.741992345868262E9 ; 1.4853990847435962E11 ; 0.0
132 ; 4.374714721400733E7 ; 1.212116388197779E9 ; 5.78578378151865E9 ; 1.4975196046444766E11 ; 0.0
133 ; 4.3707962416573524E7 ; 1.2121806961696677E9 ; 5.829530928732657E9 ; 1.5096407685264545E11 ; 0.0
134 ; 4.367036588469175E7 ; 1.2122449108164911E9 ; 5.873238891149231E9 ; 1.5217625754881512E11 ; 0.0
135 ; 4.363044335459471E7 ; 1.2123090290036004E9 ; 5.916909257033923E9 ; 1.5338850245963162E11 ; 0.0
136 ; 4.358583551921493E7 ; 1.2123730476474013E9 ; 5.960539700388517E9 ; 1.5460081148863522E11 ; 0.0
137 ; 4.35295328092923E7 ; 1.2124369637138996E9 ; 6.004125535907732E9 ; 1.5581318453628262E11 ; 0.0
138 ; 4.349386442247792E7 ; 1.212500774217294E9 ; 6.047655068717024E9 ; 1.5702562149999652E11 ; 0.0
139 ; 4.3450017667579934E7 ; 1.2125644762186236E9 ; 6.091148933139502E9 ; 1.582381222742138E11 ; 0.0
140 ; 4.340619198752156E7 ; 1.2126280668244622E9 ; 6.134598950807081E9 ; 1.5945068675043243E11 ; 0.0
141 ; 4.336203051096638E7 ; 1.212691543185657E9 ; 6.178005142794602E9 ; 1.606633148172569E11 ; 0.0
142 ; 4.3312129167409286E7 ; 1.2127549024961157E9 ; 6.221367173305569E9 ; 1.6187600636044257E11 ; 0.0
143 ; 4.3271019356524825E7 ; 1.212818141991633E9 ; 6.264679302472978E9 ; 1.630887612629387E11 ; 0.0
144 ; 4.321321799127055E7 ; 1.2128812589487605E9 ; 6.307950321829502E9 ; 1.6430157940493033E11 ; 0.0
145 ; 4.318253654343103E7 ; 1.2129442506837158E9 ; 6.351163539820773E9 ; 1.655144606638791E11 ; 0.0
146 ; 4.3158792592512205E7 ; 1.21300711455133E9 ; 6.394346076364204E9 ; 1.667274049145628E11 ; 0.0
147 ; 4.312381206928587E7 ; 1.213069847944032E9 ; 6.437504868956717E9 ; 1.6794041202911414E11 ; 0.0
148 ; 4.3097042968789905E7 ; 1.2131324482908661E9 ; 6.480628681026003E9 ; 1.6915348187705817E11 ; 0.0
149 ; 4.306601095513277E7 ; 1.2131949130565486E9 ; 6.523725723994793E9 ; 1.7036661432534903E11 ; 0.0
150 ; 4.3032269907864876E7 ; 1.2132572397405527E9 ; 6.566791734949925E9 ; 1.7157980923840558E11 ; 0.0
151 ; 4.300130828945596E7 ; 1.213319425876226E9 ; 6.60982400485779E9 ; 1.7279306647814612E11 ; 0.0
152 ; 4.29714058489265E7 ; 1.2133814690299404E9 ; 6.652825313147246E9 ; 1.7400638590402234E11 ; 0.0
153 ; 4.294614549236423E7 ; 1.2134433668002677E9 ; 6.695796718996173E9 ; 1.7521976737305228E11 ; 0.0
154 ; 4.291033259996232E7 ; 1.2135051168171878E9 ; 6.738742864488537E9 ; 1.7643321073985254E11 ; 0.0
155 ; 4.28766685726306E7 ; 1.2135667167413204E9 ; 6.781653197088499E9 ; 1.7764671585666974E11 ; 0.0
156 ; 4.284548005417067E7 ; 1.213628164263184E9 ; 6.82452986566113E9 ; 1.7886028257341107E11 ; 0.0
157 ; 4.2816733274253726E7 ; 1.2136894571024814E9 ; 6.867375345715301E9 ; 1.8007391073767426E11 ; 0.0
158 ; 4.278156717274925E7 ; 1.2137505930074062E9 ; 6.910192078989554E9 ; 1.8128760019477673E11 ; 0.0
159 ; 4.27560191212891E7 ; 1.2138115697539773E9 ; 6.952973646162304E9 ; 1.8250135078778415E11 ; 0.0
160 ; 4.271187715547041E7 ; 1.2138723851453915E9 ; 6.995729665283593E9 ; 1.8371516235753812E11 ; 0.0
161 ; 4.2688631355724186E7 ; 1.2139330370113993E9 ; 7.038441542439064E9 ; 1.849290347426835E11 ; 0.0
162 ; 4.264823220159823E7 ; 1.2139935232077043E9 ; 7.081130173794788E9 ; 1.8614296777969492E11 ; 0.0
163 ; 4.262033061304848E7 ; 1.214053841615378E9 ; 7.123778405996387E9 ; 1.8735696130290262E11 ; 0.0
164 ; 4.258344688709015E7 ; 1.2141139901402967E9 ; 7.166398736609435E9 ; 1.88571015144518E11 ; 0.0
165 ; 4.255027054587206E7 ; 1.2141739667125983E9 ; 7.208982183496525E9 ; 1.897851291346583E11 ; 0.0
166 ; 4.251594307468029E7 ; 1.2142337692861533E9 ; 7.251532454042397E9 ; 1.9099930310137088E11 ; 0.0
167 ; 4.248080816571205E7 ; 1.2142933958380578E9 ; 7.294048397117077E9 ; 1.9221353687065704E11 ; 0.0
168 ; 4.2441866811138116E7 ; 1.2143528443681397E9 ; 7.336529205282789E9 ; 1.934278302664951E11 ; 0.0
169 ; 4.2424812668931894E7 ; 1.2144121128984818E9 ; 7.378971072093927E9 ; 1.9464218311086322E11 ; 0.0
170 ; 4.238012603873058E7 ; 1.2144711994729629E9 ; 7.421395884762859E9 ; 1.958565952237617E11 ; 0.0
171 ; 4.2350905175464936E7 ; 1.2145301021568105E9 ; 7.46377601080159E9 ; 1.9707106642323465E11 ; 0.0
172 ; 4.231763059349807E7 ; 1.2145888190361695E9 ; 7.506126915977055E9 ; 1.9828559652539145E11 ; 0.0
173 ; 4.2283268633478984E7 ; 1.2146473482176871E9 ; 7.548444546570553E9 ; 1.995001853444276E11 ; 0.0
174 ; 4.2261866468936905E7 ; 1.2147056878281064E9 ; 7.590727815204032E9 ; 2.007148326926453E11 ; 0.0
175 ; 4.224614406825003E7 ; 1.214763836013878E9 ; 7.632989681672969E9 ; 2.019295383804734E11 ; 0.0
176 ; 4.222307301580371E7 ; 1.2148217909407806E9 ; 7.675235825741219E9 ; 2.0314430221648727E11 ; 0.0
177 ; 4.2199287223801784E7 ; 1.214879550793555E9 ; 7.717458898757022E9 ; 2.0435912400742804E11 ; 0.0
178 ; 4.218140312545924E7 ; 1.214937113775552E9 ; 7.7596581859808235E9 ; 2.055740035582216E11 ; 0.0
179 ; 4.215810996606599E7 ; 1.2149944781083868E9 ; 7.801839589106283E9 ; 2.0678894067199713E11 ; 0.0
180 ; 4.213527076718689E7 ; 1.215051642031609E9 ; 7.84399769907235E9 ; 2.0800393515010553E11 ; 0.0
181 ; 4.212013592809272E7 ; 1.2151086038023808E9 ; 7.886132969839537E9 ; 2.0921898679213715E11 ; 0.0
182 ; 4.209597475776973E7 ; 1.2151653616951656E9 ; 7.92825310576763E9 ; 2.104340953959395E11 ; 0.0
183 ; 4.2070646085678406E7 ; 1.2152219140014272E9 ; 7.970349080525399E9 ; 2.1164926075763467E11 ; 0.0
184 ; 4.2050489102519564E7 ; 1.2152782590293374E9 ; 8.012419726611077E9 ; 2.128644826716361E11 ; 0.0
185 ; 4.2035250003508404E7 ; 1.2153343951034942E9 ; 8.054470215713597E9 ; 2.1407976093066544E11 ; 0.0
186 ; 4.2008842390795484E7 ; 1.215390320564648E9 ; 8.096505465717106E9 ; 2.1529509532576892E11 ; 0.0
187 ; 4.1987740383995265E7 ; 1.215446033769435E9 ; 8.138514308107902E9 ; 2.1651048564633356E11 ; 0.0
188 ; 4.1965229515053995E7 ; 1.2155015330901241E9 ; 8.180502048491897E9 ; 2.17725931680103E11 ; 0.0
189 ; 4.194819429695736E7 ; 1.2155568169143634E9 ; 8.22246727800695E9 ; 2.189414332131931E11 ; 0.0
190 ; 4.192661255718826E7 ; 1.2156118836449432E9 ; 8.264415472303907E9 ; 2.2015699003010748E11 ; 0.0
191 ; 4.1903678118611544E7 ; 1.2156667316995597E9 ; 8.306342084861095E9 ; 2.2137260191375244E11 ; 0.0
192 ; 4.1881976564344615E7 ; 1.2157213595105913E9 ; 8.348245762979707E9 ; 2.22588268645452E11 ; 0.0
193 ; 4.186359438170504E7 ; 1.2157757655248766E9 ; 8.390127739544051E9 ; 2.238039900049626E11 ; 0.0
194 ; 4.183443166453638E7 ; 1.215829948203504E9 ; 8.431991333925756E9 ; 2.2501976577048746E11 ; 0.0
195 ; 4.182553103678684E7 ; 1.215883906021605E9 ; 8.473825765590293E9 ; 2.2623559571869095E11 ; 0.0
196 ; 4.179868538714258E7 ; 1.215937637468155E9 ; 8.51565129662708E9 ; 2.2745147962471255E11 ; 0.0
