CSV File for the Network on Day 8
1 - Minute m 
2 - Power Consumed at minute m 
3 - Power Produced at minute m 
4 - Energy Consumed since the beginning of the day 
5 - Energy Produced since the beginning of the day 
6 - Energy Lost since the beginning of the day 
 
0 ; 4.997924663209715E7 ; 1.0516072819786595E8 ; 0.0 ; 0.0 ; 0.0
1 ; 5.002422370388074E7 ; 1.0531504918552025E8 ; 4.997924663209715E7 ; 1.0516072819786595E8 ; 613.6199999999999
2 ; 5.008452151917296E7 ; 1.057780121484832E8 ; 1.0000347033597788E8 ; 2.104757773833862E8 ; 1227.2399999999998
3 ; 5.014981041464594E7 ; 1.0654961708675481E8 ; 1.5008799185515085E8 ; 3.162537895318694E8 ; 1840.8599999999997
4 ; 5.02196890622541E7 ; 1.0762986400033505E8 ; 2.002378022697968E8 ; 4.228034066186242E8 ; 2454.4799999999996
5 ; 5.0312010399616376E7 ; 1.0901875288922395E8 ; 2.504574913320509E8 ; 5.3043327061895925E8 ; 3068.0999999999995
6 ; 5.043132956797317E7 ; 1.1071628375342146E8 ; 3.007695017316673E8 ; 6.394520235081832E8 ; 3681.7199999999993
7 ; 5.059889345631083E7 ; 1.1272245659292763E8 ; 3.512008312996404E8 ; 7.501683072616047E8 ; 4295.339999999999
8 ; 5.083439319862697E7 ; 1.1503727140774244E8 ; 4.017997247559512E8 ; 8.628907638545322E8 ; 4908.959999999999
9 ; 5.119840473706371E7 ; 1.176607281978659E8 ; 4.526341179545782E8 ; 9.779280352622747E8 ; 5522.579999999999
10 ; 5.176840878134191E7 ; 1.2059282696329802E8 ; 5.038325226916419E8 ; 1.0955887634601407E9 ; 6136.199999999999
11 ; 5.265945021686496E7 ; 1.2383356770403877E8 ; 5.556009314729838E8 ; 1.2161815904234388E9 ; 6749.819999999999
12 ; 5.410253379663256E7 ; 1.2738295042008814E8 ; 6.082603816898488E8 ; 1.3400151581274776E9 ; 7363.439999999999
13 ; 5.546772478884328E7 ; 1.3124097511144614E8 ; 6.623629154864813E8 ; 1.4673981085475657E9 ; 7977.059999999999
14 ; 5.563590168231459E7 ; 1.3540764177811283E8 ; 7.178306402753246E8 ; 1.5986390836590118E9 ; 8590.679999999998
15 ; 5.56884384176607E7 ; 1.398829504200881E8 ; 7.734665419576392E8 ; 1.7340467254371247E9 ; 9204.3
16 ; 5.5760560971911825E7 ; 1.4466690103737208E8 ; 8.291549803752999E8 ; 1.8739296758572128E9 ; 9817.919999999998
17 ; 5.582609985004412E7 ; 1.497594936299647E8 ; 8.849155413472117E8 ; 2.018596576894585E9 ; 10431.539999999997
18 ; 5.589949750847067E7 ; 1.5516072819786593E8 ; 9.407416411972558E8 ; 2.1683560705245495E9 ; 11045.159999999996
19 ; 5.595679842977445E7 ; 1.6087060474107578E8 ; 9.966411387057265E8 ; 2.3235167987224154E9 ; 11658.779999999995
20 ; 5.601896470736794E7 ; 1.668891232595943E8 ; 1.0525979371355009E9 ; 2.4843874034634914E9 ; 12272.399999999994
21 ; 5.609290259137237E7 ; 1.7321628375342146E8 ; 1.1086169018428688E9 ; 2.651276526723086E9 ; 12886.019999999993
22 ; 5.61621402806304E7 ; 1.7985208622255725E8 ; 1.1647098044342413E9 ; 2.824492810476507E9 ; 13499.639999999992
23 ; 5.621705998177323E7 ; 1.8679653066700172E8 ; 1.2208719447148716E9 ; 3.0043448966990643E9 ; 14113.259999999991
24 ; 5.629051529754104E7 ; 1.940496170867548E8 ; 1.2770890046966448E9 ; 3.191141427366066E9 ; 14726.87999999999
25 ; 5.635820166560838E7 ; 2.0029938638E8 ; 1.333379519994186E9 ; 3.385191044452821E9 ; 15340.499999999989
26 ; 5.641186526395901E7 ; 2.0029938638E8 ; 1.3897377216597943E9 ; 3.585490430832821E9 ; 15954.119999999988
27 ; 5.6474291529423416E7 ; 2.0029938638E8 ; 1.4461495869237533E9 ; 3.785789817212821E9 ; 16567.739999999987
28 ; 5.653890372904452E7 ; 2.0029938638E8 ; 1.5026238784531767E9 ; 3.986089203592821E9 ; 17181.359999999986
29 ; 5.6593506670111805E7 ; 2.0029938638E8 ; 1.5591627821822212E9 ; 4.186388589972821E9 ; 17794.979999999985
30 ; 5.666401150817491E7 ; 2.0029938638E8 ; 1.615756288852333E9 ; 4.386687976352821E9 ; 18408.599999999984
31 ; 5.6715760348012276E7 ; 2.0029938638E8 ; 1.672420300360508E9 ; 4.586987362732821E9 ; 19022.219999999983
32 ; 5.677671097511748E7 ; 2.0029938638E8 ; 1.7291360607085202E9 ; 4.787286749112822E9 ; 19635.839999999982
33 ; 5.684672008688531E7 ; 2.0029938638E8 ; 1.7859127716836376E9 ; 4.987586135492822E9 ; 20249.45999999998
34 ; 5.689283757367696E7 ; 2.0029938638E8 ; 1.8427594917705228E9 ; 5.187885521872822E9 ; 20863.07999999998
35 ; 5.694648809878587E7 ; 2.0029938638E8 ; 1.8996523293442E9 ; 5.388184908252822E9 ; 21476.69999999998
36 ; 5.6992571522378504E7 ; 2.0029938638E8 ; 1.9565988174429858E9 ; 5.588484294632822E9 ; 22090.319999999978
37 ; 5.70537061385124E7 ; 2.0029938638E8 ; 2.0135913889653642E9 ; 5.788783681012822E9 ; 22703.939999999977
38 ; 5.709290597641227E7 ; 2.0029938638E8 ; 2.0706450951038766E9 ; 5.989083067392822E9 ; 23317.559999999976
39 ; 5.7139868792998314E7 ; 2.0029938638E8 ; 2.127738001080289E9 ; 6.189382453772822E9 ; 23931.179999999975
40 ; 5.718640645081699E7 ; 2.0029938638E8 ; 2.184877869873287E9 ; 6.3896818401528225E9 ; 24544.799999999974
41 ; 5.7226448029883474E7 ; 2.0029938638E8 ; 2.2420642763241043E9 ; 6.589981226532823E9 ; 25158.419999999973
42 ; 5.7263131682739E7 ; 2.0029938638E8 ; 2.2992907243539877E9 ; 6.790280612912823E9 ; 25772.03999999997
43 ; 5.729793858829059E7 ; 2.0029938638E8 ; 2.3565538560367265E9 ; 6.990579999292823E9 ; 26385.65999999997
44 ; 5.7329780267355114E7 ; 2.0029938638E8 ; 2.413851794625017E9 ; 7.190879385672823E9 ; 26999.27999999997
45 ; 5.736599027181881E7 ; 2.0029938638E8 ; 2.471181574892372E9 ; 7.391178772052823E9 ; 27612.89999999997
46 ; 5.739345155544411E7 ; 2.0029938638E8 ; 2.528547565164191E9 ; 7.591478158432823E9 ; 28226.519999999968
47 ; 5.7429856288121395E7 ; 2.0029938638E8 ; 2.585941016719635E9 ; 7.791777544812823E9 ; 28840.139999999967
48 ; 5.744197800249725E7 ; 2.0029938638E8 ; 2.643370873007756E9 ; 7.992076931192823E9 ; 29453.759999999966
49 ; 5.7461556474229E7 ; 2.0029938638E8 ; 2.7008128510102534E9 ; 8.192376317572824E9 ; 30067.379999999965
50 ; 5.7481836249285616E7 ; 2.0029938638E8 ; 2.7582744074844823E9 ; 8.392675703952824E9 ; 30680.999999999964
51 ; 5.7502695545883685E7 ; 2.0029938638E8 ; 2.815756243733768E9 ; 8.592975090332823E9 ; 31294.619999999963
52 ; 5.7517546559165716E7 ; 2.0029938638E8 ; 2.8732589392796516E9 ; 8.793274476712822E9 ; 31908.23999999996
53 ; 5.753003586477983E7 ; 2.0029938638E8 ; 2.9307764858388176E9 ; 8.993573863092821E9 ; 32521.85999999996
54 ; 5.754097407613931E7 ; 2.0029938638E8 ; 2.9883065217035975E9 ; 9.19387324947282E9 ; 33135.47999999996
55 ; 5.755579048155864E7 ; 2.0029938638E8 ; 3.045847495779737E9 ; 9.39417263585282E9 ; 33749.09999999996
56 ; 5.7572599733701766E7 ; 2.0029938638E8 ; 3.103403286261296E9 ; 9.594472022232819E9 ; 34362.719999999965
57 ; 5.759536478971352E7 ; 2.0029938638E8 ; 3.1609758859949975E9 ; 9.794771408612818E9 ; 34976.33999999997
58 ; 5.759688378792687E7 ; 2.0029938638E8 ; 3.218571250784711E9 ; 9.995070794992817E9 ; 35589.95999999997
59 ; 5.7607742610043384E7 ; 2.0029938638E8 ; 3.2761681345726376E9 ; 1.0195370181372816E10 ; 36203.57999999997
60 ; 5.762717860880641E7 ; 2.0029938638E8 ; 3.333775877182681E9 ; 1.0395669567752815E10 ; 36817.199999999975
61 ; 5.7638277871774375E7 ; 2.0029938638E8 ; 3.3914030557914877E9 ; 1.0595968954132814E10 ; 37430.81999999998
62 ; 5.764692420753746E7 ; 2.0029938638E8 ; 3.449041333663262E9 ; 1.0796268340512814E10 ; 38044.43999999998
63 ; 5.765041115271711E7 ; 2.0029938638E8 ; 3.5066882578707995E9 ; 1.0996567726892813E10 ; 38658.05999999998
64 ; 5.7658553819752224E7 ; 2.0029938638E8 ; 3.5643386690235167E9 ; 1.1196867113272812E10 ; 39271.679999999986
65 ; 5.767176063558075E7 ; 2.0029938638E8 ; 3.621997222843269E9 ; 1.1397166499652811E10 ; 39885.29999999999
66 ; 5.768827422090353E7 ; 2.0029938638E8 ; 3.6796689834788494E9 ; 1.159746588603281E10 ; 40498.91999999999
67 ; 5.769378441587581E7 ; 2.0029938638E8 ; 3.737357257699753E9 ; 1.179776527241281E10 ; 41112.53999999999
68 ; 5.769821562442732E7 ; 2.0029938638E8 ; 3.7950510421156287E9 ; 1.1998064658792809E10 ; 41726.159999999996
69 ; 5.769946922441221E7 ; 2.0029938638E8 ; 3.852749257740056E9 ; 1.2198364045172808E10 ; 42339.78
70 ; 5.770874989840985E7 ; 2.0029938638E8 ; 3.9104487269644685E9 ; 1.2398663431552807E10 ; 42953.4
71 ; 5.771488107051109E7 ; 2.0029938638E8 ; 3.9681574768628783E9 ; 1.2598962817932806E10 ; 43567.020000000004
72 ; 5.771815758716413E7 ; 2.0029938638E8 ; 4.025872357933389E9 ; 1.2799262204312805E10 ; 44180.64000000001
73 ; 5.771799528938456E7 ; 2.0029938638E8 ; 4.083590515520553E9 ; 1.2999561590692804E10 ; 44794.26000000001
74 ; 5.7731765250539854E7 ; 2.0029938638E8 ; 4.1413085108099375E9 ; 1.3199860977072803E10 ; 45407.88000000001
75 ; 5.773093757586827E7 ; 2.0029938638E8 ; 4.1990402760604773E9 ; 1.3400160363452803E10 ; 46021.500000000015
76 ; 5.7736501106335446E7 ; 2.0029938638E8 ; 4.2567712136363454E9 ; 1.3600459749832802E10 ; 46635.12000000002
77 ; 5.7735661349606484E7 ; 2.0029938638E8 ; 4.314507714742681E9 ; 1.3800759136212801E10 ; 47248.74000000002
78 ; 5.772219563175998E7 ; 2.0029938638E8 ; 4.372243376092287E9 ; 1.40010585225928E10 ; 47862.36000000002
79 ; 5.7706201379624695E7 ; 2.0029938638E8 ; 4.429965571724047E9 ; 1.42013579089728E10 ; 48475.980000000025
80 ; 5.768482879165487E7 ; 2.0029938638E8 ; 4.487671773103671E9 ; 1.4401657295352798E10 ; 49089.60000000003
81 ; 5.767758786147678E7 ; 2.0029938638E8 ; 4.545356601895326E9 ; 1.4601956681732798E10 ; 49703.22000000003
82 ; 5.765031576221834E7 ; 2.0029938638E8 ; 4.603034189756803E9 ; 1.4802256068112797E10 ; 50316.84000000003
83 ; 5.763861653355618E7 ; 2.0029938638E8 ; 4.660684505519021E9 ; 1.5002555454492796E10 ; 50930.460000000036
84 ; 5.7625011574513495E7 ; 2.0029938638E8 ; 4.718323122052577E9 ; 1.5202854840872795E10 ; 51544.08000000004
85 ; 5.760095299507089E7 ; 2.0029938638E8 ; 4.77594813362709E9 ; 1.5403154227252794E10 ; 52157.70000000004
86 ; 5.7573875668268874E7 ; 2.0029938638E8 ; 4.833549086622161E9 ; 1.5603453613632793E10 ; 52771.32000000004
87 ; 5.75610847737093E7 ; 2.0029938638E8 ; 4.89112296229043E9 ; 1.5803753000012793E10 ; 53384.940000000046
88 ; 5.7545125951755986E7 ; 2.0029938638E8 ; 4.948684047064139E9 ; 1.6004052386392792E10 ; 53998.56000000005
89 ; 5.751783836383978E7 ; 2.0029938638E8 ; 5.006229173015895E9 ; 1.620435177277279E10 ; 54612.18000000005
90 ; 5.749755316638935E7 ; 2.0029938638E8 ; 5.063747011379735E9 ; 1.640465115915279E10 ; 55225.800000000054
91 ; 5.746668600638024E7 ; 2.0029938638E8 ; 5.121244564546124E9 ; 1.660495054553279E10 ; 55839.42000000006
92 ; 5.7453738191595644E7 ; 2.0029938638E8 ; 5.178711250552505E9 ; 1.6805249931912788E10 ; 56453.04000000006
93 ; 5.7425525511983655E7 ; 2.0029938638E8 ; 5.236164988744101E9 ; 1.7005549318292788E10 ; 57066.66000000006
94 ; 5.7411181976643786E7 ; 2.0029938638E8 ; 5.293590514256084E9 ; 1.7205848704672787E10 ; 57680.280000000064
95 ; 5.7389559735971324E7 ; 2.0029938638E8 ; 5.351001696232728E9 ; 1.7406148091052788E10 ; 58293.90000000007
96 ; 5.736152271814055E7 ; 2.0029938638E8 ; 5.408391255968699E9 ; 1.760644747743279E10 ; 58907.52000000007
97 ; 5.7333603441377E7 ; 2.0029938638E8 ; 5.46575277868684E9 ; 1.780674686381279E10 ; 59521.14000000007
98 ; 5.730996871607992E7 ; 2.0029938638E8 ; 5.523086382128217E9 ; 1.800704625019279E10 ; 60134.760000000075
99 ; 5.727497059592785E7 ; 2.0029938638E8 ; 5.580396350844296E9 ; 1.8207345636572792E10 ; 60748.38000000008
100 ; 5.7248139722328074E7 ; 2.0029938638E8 ; 5.637671321440225E9 ; 1.8407645022952793E10 ; 61362.00000000008
101 ; 5.722205335039972E7 ; 2.0029938638E8 ; 5.694919461162553E9 ; 1.8607944409332794E10 ; 61975.62000000008
102 ; 5.719373736482865E7 ; 2.0029938638E8 ; 5.752141514512953E9 ; 1.8808243795712795E10 ; 62589.240000000085
103 ; 5.716493891369972E7 ; 2.0029938638E8 ; 5.809335251877782E9 ; 1.9008543182092796E10 ; 63202.86000000009
104 ; 5.713130817353352E7 ; 2.0029938638E8 ; 5.866500190791482E9 ; 1.9208842568472797E10 ; 63816.48000000009
105 ; 5.710018025730382E7 ; 2.0029938638E8 ; 5.923631498965015E9 ; 1.94091419548528E10 ; 64430.10000000009
106 ; 5.706824048301481E7 ; 2.0029938638E8 ; 5.98073167922232E9 ; 1.96094413412328E10 ; 65043.720000000096
107 ; 5.704107218705124E7 ; 2.0029938638E8 ; 6.037799919705335E9 ; 1.98097407276128E10 ; 65657.3400000001
108 ; 5.7008565758405045E7 ; 2.0029938638E8 ; 6.0948409918923855E9 ; 2.00100401139928E10 ; 66270.9600000001
109 ; 5.697816104573703E7 ; 2.0029938638E8 ; 6.15184955765079E9 ; 2.0210339500372803E10 ; 66884.58000000009
110 ; 5.694283381934461E7 ; 2.0029938638E8 ; 6.2088277186965275E9 ; 2.0410638886752804E10 ; 67498.20000000008
111 ; 5.690740995819785E7 ; 2.0029938638E8 ; 6.265770552515872E9 ; 2.0610938273132805E10 ; 68111.82000000008
112 ; 5.687564928320556E7 ; 2.0029938638E8 ; 6.32267796247407E9 ; 2.0811237659512806E10 ; 68725.44000000008
113 ; 5.683614442402525E7 ; 2.0029938638E8 ; 6.379553611757276E9 ; 2.1011537045892807E10 ; 69339.06000000007
114 ; 5.680482072766741E7 ; 2.0029938638E8 ; 6.436389756181301E9 ; 2.1211836432272808E10 ; 69952.68000000007
115 ; 5.677002452673377E7 ; 2.0029938638E8 ; 6.493194576908969E9 ; 2.141213581865281E10 ; 70566.30000000006
116 ; 5.673298289929332E7 ; 2.0029938638E8 ; 6.549964601435702E9 ; 2.161243520503281E10 ; 71179.92000000006
117 ; 5.670660198836997E7 ; 2.0029938638E8 ; 6.606697584334995E9 ; 2.181273459141281E10 ; 71793.54000000005
118 ; 5.6657954884272665E7 ; 2.0029938638E8 ; 6.663404186323365E9 ; 2.2013033977792812E10 ; 72407.16000000005
119 ; 5.662436376790369E7 ; 2.0029938638E8 ; 6.720062141207638E9 ; 2.2213333364172813E10 ; 73020.78000000004
120 ; 5.658386958162073E7 ; 2.0029938638E8 ; 6.776686504975541E9 ; 2.2413632750552814E10 ; 73634.40000000004
121 ; 5.65401655793985E7 ; 2.0029938638E8 ; 6.833270374557162E9 ; 2.2613932136932816E10 ; 74248.02000000003
122 ; 5.650619682327247E7 ; 2.0029938638E8 ; 6.88981054013656E9 ; 2.2814231523312817E10 ; 74861.64000000003
123 ; 5.646339797296813E7 ; 2.0029938638E8 ; 6.946316736959833E9 ; 2.3014530909692818E10 ; 75475.26000000002
124 ; 5.643151915192461E7 ; 2.0029938638E8 ; 7.002780134932801E9 ; 2.321483029607282E10 ; 76088.88000000002
125 ; 5.63842511741893E7 ; 2.0029938638E8 ; 7.059211654084726E9 ; 2.341512968245282E10 ; 76702.50000000001
126 ; 5.634341979151568E7 ; 2.0029938638E8 ; 7.115595905258916E9 ; 2.361542906883282E10 ; 77316.12000000001
127 ; 5.629254699533886E7 ; 2.0029938638E8 ; 7.171939325050431E9 ; 2.3815728455212822E10 ; 77929.74
128 ; 5.625464633746256E7 ; 2.0029938638E8 ; 7.22823187204577E9 ; 2.4016027841592823E10 ; 78543.36
129 ; 5.621908161891238E7 ; 2.0029938638E8 ; 7.284486518383232E9 ; 2.4216327227972824E10 ; 79156.98
130 ; 5.61597137385598E7 ; 2.0029938638E8 ; 7.340705600002145E9 ; 2.4416626614352825E10 ; 79770.59999999999
131 ; 5.609794820376374E7 ; 2.0029938638E8 ; 7.396865313740705E9 ; 2.4616926000732826E10 ; 80384.21999999999
132 ; 5.603996876725544E7 ; 2.0029938638E8 ; 7.4529632619444685E9 ; 2.4817225387112827E10 ; 80997.83999999998
133 ; 5.597878716054399E7 ; 2.0029938638E8 ; 7.509003230711724E9 ; 2.501752477349283E10 ; 81611.45999999998
134 ; 5.5916451573636375E7 ; 2.0029938638E8 ; 7.564982017872269E9 ; 2.521782415987283E10 ; 82225.07999999997
135 ; 5.584897113600393E7 ; 2.0029938638E8 ; 7.620898469445905E9 ; 2.541812354625283E10 ; 82838.69999999997
136 ; 5.57876406768083E7 ; 2.0029938638E8 ; 7.676747440581908E9 ; 2.561842293263283E10 ; 83452.31999999996
137 ; 5.571754106001918E7 ; 2.0029938638E8 ; 7.732535081258717E9 ; 2.5818722319012833E10 ; 84065.93999999996
138 ; 5.5645201896851994E7 ; 2.0029938638E8 ; 7.788252622318736E9 ; 2.6019021705392834E10 ; 84679.55999999995
139 ; 5.558137163515036E7 ; 2.0029938638E8 ; 7.843897824215588E9 ; 2.6219321091772835E10 ; 85293.17999999995
140 ; 5.5523567334154844E7 ; 2.0029938638E8 ; 7.899479195850738E9 ; 2.6419620478152836E10 ; 85906.79999999994
141 ; 5.5452392438849874E7 ; 2.0029938638E8 ; 7.955002763184893E9 ; 2.6619919864532837E10 ; 86520.41999999994
142 ; 5.537778355695133E7 ; 2.0029938638E8 ; 8.010455155623742E9 ; 2.6820219250912838E10 ; 87134.03999999994
143 ; 5.53164556609403E7 ; 2.0029938638E8 ; 8.065832939180694E9 ; 2.702051863729284E10 ; 87747.65999999993
144 ; 5.5244859204059675E7 ; 2.0029938638E8 ; 8.121149394841634E9 ; 2.722081802367284E10 ; 88361.27999999993
145 ; 5.5200270677425966E7 ; 2.0029938638E8 ; 8.176394254045693E9 ; 2.742111741005284E10 ; 88974.89999999992
146 ; 5.51556637630434E7 ; 2.0029938638E8 ; 8.23159452472312E9 ; 2.7621416796432842E10 ; 89588.51999999992
147 ; 5.511458919351739E7 ; 2.0029938638E8 ; 8.286750188486163E9 ; 2.7821716182812843E10 ; 90202.13999999991
148 ; 5.506354127113106E7 ; 2.0029938638E8 ; 8.341864777679681E9 ; 2.8022015569192844E10 ; 90815.75999999991
149 ; 5.500828520491281E7 ; 2.0029938638E8 ; 8.396928318950812E9 ; 2.8222314955572845E10 ; 91429.3799999999
150 ; 5.4967167706102185E7 ; 2.0029938638E8 ; 8.4519366041557255E9 ; 2.8422614341952847E10 ; 92042.9999999999
151 ; 5.492548666563129E7 ; 2.0029938638E8 ; 8.506903771861828E9 ; 2.8622913728332848E10 ; 92656.6199999999
152 ; 5.487295035593667E7 ; 2.0029938638E8 ; 8.561829258527459E9 ; 2.882321311471285E10 ; 93270.23999999989
153 ; 5.4831782761656605E7 ; 2.0029938638E8 ; 8.616702208883396E9 ; 2.902351250109285E10 ; 93883.85999999988
154 ; 5.477972468185868E7 ; 2.0029938638E8 ; 8.671533991645052E9 ; 2.922381188747285E10 ; 94497.47999999988
155 ; 5.472683066245656E7 ; 2.0029938638E8 ; 8.72631371632691E9 ; 2.942411127385285E10 ; 95111.09999999987
156 ; 5.4676200795980625E7 ; 2.0029938638E8 ; 8.781040546989367E9 ; 2.9624410660232853E10 ; 95724.71999999987
157 ; 5.462193075161798E7 ; 2.0029938638E8 ; 8.835716747785347E9 ; 2.9824710046612854E10 ; 96338.33999999987
158 ; 5.457363046332599E7 ; 2.0029938638E8 ; 8.890338678536964E9 ; 3.0025009432992855E10 ; 96951.95999999986
159 ; 5.452995932699465E7 ; 2.0029938638E8 ; 8.94491230900029E9 ; 3.0225308819372856E10 ; 97565.57999999986
160 ; 5.447993672329981E7 ; 2.0029938638E8 ; 8.999442268327284E9 ; 3.0425608205752857E10 ; 98179.19999999985
161 ; 5.4430790429793455E7 ; 2.0029938638E8 ; 9.053922205050583E9 ; 3.062590759213286E10 ; 98792.81999999985
162 ; 5.437795072020346E7 ; 2.0029938638E8 ; 9.108352995480377E9 ; 3.082620697851286E10 ; 99406.43999999984
163 ; 5.432944903424891E7 ; 2.0029938638E8 ; 9.16273094620058E9 ; 3.102650636489286E10 ; 100020.05999999984
164 ; 5.427358001987998E7 ; 2.0029938638E8 ; 9.217060395234829E9 ; 3.122680575127286E10 ; 100633.67999999983
165 ; 5.4232328690834045E7 ; 2.0029938638E8 ; 9.27133397525471E9 ; 3.1427105137652863E10 ; 101247.29999999983
166 ; 5.4177619385006845E7 ; 2.0029938638E8 ; 9.325566303945543E9 ; 3.1627404524032864E10 ; 101860.91999999982
167 ; 5.413048647913925E7 ; 2.0029938638E8 ; 9.37974392333055E9 ; 3.1827703910412865E10 ; 102474.53999999982
168 ; 5.407470701810356E7 ; 2.0029938638E8 ; 9.433874409809689E9 ; 3.2028003296792866E10 ; 103088.15999999981
169 ; 5.402358536591047E7 ; 2.0029938638E8 ; 9.487949116827791E9 ; 3.2228302683172867E10 ; 103701.77999999981
170 ; 5.396860344358505E7 ; 2.0029938638E8 ; 9.5419727021937E9 ; 3.2428602069552868E10 ; 104315.3999999998
171 ; 5.392314213111088E7 ; 2.0029938638E8 ; 9.595941305637285E9 ; 3.262890145593287E10 ; 104929.0199999998
172 ; 5.386249431113105E7 ; 2.0029938638E8 ; 9.649864447768396E9 ; 3.282920084231287E10 ; 105542.6399999998
173 ; 5.381947160561746E7 ; 2.0029938638E8 ; 9.703726942079527E9 ; 3.302950022869287E10 ; 106156.25999999979
174 ; 5.378047378540811E7 ; 2.0029938638E8 ; 9.757546413685144E9 ; 3.3229799615072872E10 ; 106769.87999999979
175 ; 5.3760971518146396E7 ; 2.0029938638E8 ; 9.811326887470552E9 ; 3.3430099001452873E10 ; 107383.49999999978
176 ; 5.372328727598678E7 ; 2.0029938638E8 ; 9.865087858988699E9 ; 3.3630398387832874E10 ; 107997.11999999978
177 ; 5.368222353657659E7 ; 2.0029938638E8 ; 9.918811146264687E9 ; 3.3830697774212875E10 ; 108610.73999999977
178 ; 5.366109424877104E7 ; 2.0029938638E8 ; 9.972493369801264E9 ; 3.4030997160592876E10 ; 109224.35999999977
179 ; 5.363363128105688E7 ; 2.0029938638E8 ; 1.0026154464050035E10 ; 3.4231296546972878E10 ; 109837.97999999976
180 ; 5.359054098513E7 ; 2.0029938638E8 ; 1.0079788095331093E10 ; 3.4431595933352875E10 ; 110451.59999999976
181 ; 5.35583832812035E7 ; 2.0029938638E8 ; 1.0133378636316223E10 ; 3.463189531973287E10 ; 111065.21999999975
