CSV File for the Network on Day 16
1 - Minute m 
2 - Power Consumed at minute m 
3 - Power Produced at minute m 
4 - Energy Consumed since the beginning of the day 
5 - Energy Produced since the beginning of the day 
6 - Energy Lost since the beginning of the day 
 
0 ; 4.994643365607623E7 ; 1.0516072819786593E8 ; 0.0 ; 0.0 ; 0.0
1 ; 4.999510775883405E7 ; 1.0531504918552023E8 ; 4.994643365607623E7 ; 1.0516072819786593E8 ; 613.6199999999999
2 ; 5.0049810933409914E7 ; 1.0577801214848319E8 ; 9.994154141491029E7 ; 2.1047577738338616E8 ; 1227.2399999999998
3 ; 5.010955063428027E7 ; 1.065496170867548E8 ; 1.499913523483202E8 ; 3.1625378953186935E8 ; 1840.8599999999997
4 ; 5.019185714953687E7 ; 1.0762986400033504E8 ; 2.0010090298260045E8 ; 4.2280340661862415E8 ; 2454.4799999999996
5 ; 5.028421427222531E7 ; 1.0901875288922393E8 ; 2.5029276013213733E8 ; 5.304332706189592E8 ; 3068.0999999999995
6 ; 5.0400324827826716E7 ; 1.1071628375342146E8 ; 3.005769744043626E8 ; 6.394520235081831E8 ; 3681.7199999999993
7 ; 5.056960241226372E7 ; 1.1272245659292763E8 ; 3.5097729923218936E8 ; 7.501683072616045E8 ; 4295.339999999999
8 ; 5.080172951833764E7 ; 1.1503727140774244E8 ; 4.0154690164445305E8 ; 8.628907638545322E8 ; 4908.959999999999
9 ; 5.116686229906186E7 ; 1.176607281978659E8 ; 4.5234863116279066E8 ; 9.779280352622747E8 ; 5522.579999999999
10 ; 5.1741798252398826E7 ; 1.2059282696329802E8 ; 5.035154934618525E8 ; 1.0955887634601407E9 ; 6136.199999999999
11 ; 5.262982380077702E7 ; 1.2383356770403877E8 ; 5.552572917142513E8 ; 1.2161815904234388E9 ; 6749.819999999999
12 ; 5.407168193577747E7 ; 1.2738295042008814E8 ; 6.078871155150282E8 ; 1.3400151581274776E9 ; 7363.439999999999
13 ; 5.544201721074042E7 ; 1.3124097511144614E8 ; 6.619587974508057E8 ; 1.4673981085475657E9 ; 7977.059999999999
14 ; 5.5606483174281105E7 ; 1.3540764177811283E8 ; 7.174008146615461E8 ; 1.5986390836590118E9 ; 8590.679999999998
15 ; 5.566861366173464E7 ; 1.398829504200881E8 ; 7.730072978358272E8 ; 1.7340467254371247E9 ; 9204.3
16 ; 5.5735053973306954E7 ; 1.4466690103737208E8 ; 8.286759114975619E8 ; 1.8739296758572128E9 ; 9817.919999999998
17 ; 5.580436418771785E7 ; 1.4975949362996468E8 ; 8.844109654708688E8 ; 2.018596576894585E9 ; 10431.539999999997
18 ; 5.586655503218888E7 ; 1.551607281978659E8 ; 9.402153296585866E8 ; 2.1683560705245495E9 ; 11045.159999999996
19 ; 5.5931147772188105E7 ; 1.6087060474107578E8 ; 9.960818846907755E8 ; 2.3235167987224154E9 ; 11658.779999999995
20 ; 5.5987539461249575E7 ; 1.668891232595943E8 ; 1.0520130324629636E9 ; 2.4843874034634914E9 ; 12272.399999999994
21 ; 5.6065649416840635E7 ; 1.7321628375342143E8 ; 1.1080005719242132E9 ; 2.651276526723086E9 ; 12886.019999999993
22 ; 5.6130331500507034E7 ; 1.7985208622255722E8 ; 1.1640662213410537E9 ; 2.824492810476507E9 ; 13499.639999999992
23 ; 5.619325437395361E7 ; 1.867965306670017E8 ; 1.2201965528415608E9 ; 3.0043448966990643E9 ; 14113.259999999991
24 ; 5.626446502779771E7 ; 1.9404961708675477E8 ; 1.2763898072155144E9 ; 3.191141427366066E9 ; 14726.87999999999
25 ; 5.6324741158070385E7 ; 2.0029938637999997E8 ; 1.3326542722433121E9 ; 3.385191044452821E9 ; 15340.499999999989
26 ; 5.6393404798403256E7 ; 2.0029938637999997E8 ; 1.3889790134013824E9 ; 3.585490430832821E9 ; 15954.119999999988
27 ; 5.645155484440551E7 ; 2.0029938637999997E8 ; 1.4453724181997857E9 ; 3.785789817212821E9 ; 16567.739999999987
28 ; 5.6519736908033766E7 ; 2.0029938637999997E8 ; 1.5018239730441911E9 ; 3.986089203592821E9 ; 17181.359999999986
29 ; 5.65798810261481E7 ; 2.0029938637999997E8 ; 1.558343709952225E9 ; 4.186388589972821E9 ; 17794.979999999985
30 ; 5.663480399622511E7 ; 2.0029938637999997E8 ; 1.614923590978373E9 ; 4.386687976352821E9 ; 18408.599999999984
31 ; 5.669521087406088E7 ; 2.0029938637999997E8 ; 1.6715583949745982E9 ; 4.586987362732821E9 ; 19022.219999999983
32 ; 5.675868266643016E7 ; 2.0029938637999997E8 ; 1.728253605848659E9 ; 4.787286749112822E9 ; 19635.839999999982
33 ; 5.680823510847244E7 ; 2.0029938637999997E8 ; 1.7850122885150893E9 ; 4.987586135492822E9 ; 20249.45999999998
34 ; 5.687088782765672E7 ; 2.0029938637999997E8 ; 1.8418205236235616E9 ; 5.187885521872822E9 ; 20863.07999999998
35 ; 5.692482802080466E7 ; 2.0029938637999997E8 ; 1.8986914114512184E9 ; 5.388184908252822E9 ; 21476.69999999998
36 ; 5.696989880552984E7 ; 2.0029938637999997E8 ; 1.955616239472023E9 ; 5.588484294632822E9 ; 22090.319999999978
37 ; 5.7021697235122025E7 ; 2.0029938637999997E8 ; 2.0125861382775528E9 ; 5.788783681012822E9 ; 22703.939999999977
38 ; 5.7063404440730035E7 ; 2.0029938637999997E8 ; 2.0696078355126748E9 ; 5.989083067392822E9 ; 23317.559999999976
39 ; 5.711000784924759E7 ; 2.0029938637999997E8 ; 2.126671239953405E9 ; 6.189382453772822E9 ; 23931.179999999975
40 ; 5.715877061989913E7 ; 2.0029938637999997E8 ; 2.1837812478026524E9 ; 6.3896818401528225E9 ; 24544.799999999974
41 ; 5.719781609026103E7 ; 2.0029938637999997E8 ; 2.2409400184225516E9 ; 6.589981226532823E9 ; 25158.419999999973
42 ; 5.7235966453631476E7 ; 2.0029938637999997E8 ; 2.2981378345128126E9 ; 6.790280612912823E9 ; 25772.03999999997
43 ; 5.727752277314966E7 ; 2.0029938637999997E8 ; 2.355373800966444E9 ; 6.990579999292823E9 ; 26385.65999999997
44 ; 5.730412288596744E7 ; 2.0029938637999997E8 ; 2.4126513237395935E9 ; 7.190879385672823E9 ; 26999.27999999997
45 ; 5.73360384634066E7 ; 2.0029938637999997E8 ; 2.4699554466255608E9 ; 7.391178772052823E9 ; 27612.89999999997
46 ; 5.736140418094819E7 ; 2.0029938637999997E8 ; 2.5272914850889673E9 ; 7.591478158432823E9 ; 28226.519999999968
47 ; 5.7388670808824815E7 ; 2.0029938637999997E8 ; 2.5846528892699156E9 ; 7.791777544812823E9 ; 28840.139999999967
48 ; 5.74183868618782E7 ; 2.0029938637999997E8 ; 2.6420415600787406E9 ; 7.992076931192823E9 ; 29453.759999999966
49 ; 5.744322403680538E7 ; 2.0029938637999997E8 ; 2.699459946940619E9 ; 8.192376317572824E9 ; 30067.379999999965
50 ; 5.745210209323556E7 ; 2.0029938637999997E8 ; 2.756903170977424E9 ; 8.392675703952824E9 ; 30680.999999999964
51 ; 5.747595979995368E7 ; 2.0029938637999997E8 ; 2.8143552730706596E9 ; 8.592975090332823E9 ; 31294.619999999963
52 ; 5.748558333914828E7 ; 2.0029938637999997E8 ; 2.871831232870613E9 ; 8.793274476712822E9 ; 31908.23999999996
53 ; 5.7507381128978714E7 ; 2.0029938637999997E8 ; 2.9293168162097616E9 ; 8.993573863092821E9 ; 32521.85999999996
54 ; 5.751593605671403E7 ; 2.0029938637999997E8 ; 2.9868241973387403E9 ; 9.19387324947282E9 ; 33135.47999999996
55 ; 5.753318780373948E7 ; 2.0029938637999997E8 ; 3.0443401333954544E9 ; 9.39417263585282E9 ; 33749.09999999996
56 ; 5.755199846428633E7 ; 2.0029938637999997E8 ; 3.101873321199194E9 ; 9.594472022232819E9 ; 34362.719999999965
57 ; 5.7554124915390655E7 ; 2.0029938637999997E8 ; 3.1594253196634803E9 ; 9.794771408612818E9 ; 34976.33999999997
58 ; 5.757075529347913E7 ; 2.0029938637999997E8 ; 3.216979444578871E9 ; 9.995070794992817E9 ; 35589.95999999997
59 ; 5.758516310448419E7 ; 2.0029938637999997E8 ; 3.2745501998723497E9 ; 1.0195370181372816E10 ; 36203.57999999997
60 ; 5.759598660912842E7 ; 2.0029938637999997E8 ; 3.332135362976834E9 ; 1.0395669567752815E10 ; 36817.199999999975
61 ; 5.760039986699148E7 ; 2.0029938637999997E8 ; 3.3897313495859623E9 ; 1.0595968954132814E10 ; 37430.81999999998
62 ; 5.761360120263029E7 ; 2.0029938637999997E8 ; 3.447331749452954E9 ; 1.0796268340512814E10 ; 38044.43999999998
63 ; 5.7628411315941945E7 ; 2.0029938637999997E8 ; 3.5049453506555843E9 ; 1.0996567726892813E10 ; 38658.05999999998
64 ; 5.763849050654188E7 ; 2.0029938637999997E8 ; 3.562573761971526E9 ; 1.1196867113272812E10 ; 39271.679999999986
65 ; 5.764448347531381E7 ; 2.0029938637999997E8 ; 3.620212252478068E9 ; 1.1397166499652811E10 ; 39885.29999999999
66 ; 5.764712736339215E7 ; 2.0029938637999997E8 ; 3.6778567359533815E9 ; 1.159746588603281E10 ; 40498.91999999999
67 ; 5.7657347107471675E7 ; 2.0029938637999997E8 ; 3.735503863316774E9 ; 1.179776527241281E10 ; 41112.53999999999
68 ; 5.765701206050525E7 ; 2.0029938637999997E8 ; 3.7931612104242454E9 ; 1.1998064658792809E10 ; 41726.159999999996
69 ; 5.7674067725987986E7 ; 2.0029938637999997E8 ; 3.8508182224847507E9 ; 1.2198364045172808E10 ; 42339.78
70 ; 5.7686092296602875E7 ; 2.0029938637999997E8 ; 3.9084922902107387E9 ; 1.2398663431552807E10 ; 42953.4
71 ; 5.768118256360198E7 ; 2.0029938637999997E8 ; 3.9661783825073414E9 ; 1.2598962817932806E10 ; 43567.020000000004
72 ; 5.767843297939107E7 ; 2.0029938637999997E8 ; 4.0238595650709434E9 ; 1.2799262204312805E10 ; 44180.64000000001
73 ; 5.768557075934393E7 ; 2.0029938637999997E8 ; 4.0815379980503345E9 ; 1.2999561590692804E10 ; 44794.26000000001
74 ; 5.769837675888183E7 ; 2.0029938637999997E8 ; 4.1392235688096786E9 ; 1.3199860977072803E10 ; 45407.88000000001
75 ; 5.769364347928265E7 ; 2.0029938637999997E8 ; 4.1969219455685606E9 ; 1.3400160363452803E10 ; 46021.500000000015
76 ; 5.769445049157742E7 ; 2.0029938637999997E8 ; 4.2546155890478435E9 ; 1.3600459749832802E10 ; 46635.12000000002
77 ; 5.769511413634187E7 ; 2.0029938637999997E8 ; 4.312310039539421E9 ; 1.3800759136212801E10 ; 47248.74000000002
78 ; 5.767888288783842E7 ; 2.0029938637999997E8 ; 4.370005153675763E9 ; 1.40010585225928E10 ; 47862.36000000002
79 ; 5.766732564588109E7 ; 2.0029938637999997E8 ; 4.4276840365636015E9 ; 1.42013579089728E10 ; 48475.980000000025
80 ; 5.7643725307432204E7 ; 2.0029938637999997E8 ; 4.485351362209482E9 ; 1.4401657295352798E10 ; 49089.60000000003
81 ; 5.763479862336956E7 ; 2.0029938637999997E8 ; 4.542995087516914E9 ; 1.4601956681732798E10 ; 49703.22000000003
82 ; 5.760834839093144E7 ; 2.0029938637999997E8 ; 4.600629886140284E9 ; 1.4802256068112797E10 ; 50316.84000000003
83 ; 5.759005464899935E7 ; 2.0029938637999997E8 ; 4.658238234531215E9 ; 1.5002555454492796E10 ; 50930.460000000036
84 ; 5.7574746837109774E7 ; 2.0029938637999997E8 ; 4.715828289180214E9 ; 1.5202854840872795E10 ; 51544.08000000004
85 ; 5.7559247831742E7 ; 2.0029938637999997E8 ; 4.7734030360173235E9 ; 1.5403154227252794E10 ; 52157.70000000004
86 ; 5.7529100441336624E7 ; 2.0029938637999997E8 ; 4.830962283849066E9 ; 1.5603453613632793E10 ; 52771.32000000004
87 ; 5.75210615619321E7 ; 2.0029938637999997E8 ; 4.888491384290402E9 ; 1.5803753000012793E10 ; 53384.940000000046
88 ; 5.748982773873237E7 ; 2.0029938637999997E8 ; 4.946012445852335E9 ; 1.6004052386392792E10 ; 53998.56000000005
89 ; 5.747104241172089E7 ; 2.0029938637999997E8 ; 5.003502273591067E9 ; 1.620435177277279E10 ; 54612.18000000005
90 ; 5.7449247597724706E7 ; 2.0029938637999997E8 ; 5.060973316002789E9 ; 1.640465115915279E10 ; 55225.800000000054
91 ; 5.742929292087449E7 ; 2.0029938637999997E8 ; 5.118422563600513E9 ; 1.660495054553279E10 ; 55839.42000000006
92 ; 5.740371888817601E7 ; 2.0029938637999997E8 ; 5.175851856521388E9 ; 1.6805249931912788E10 ; 56453.04000000006
93 ; 5.738267785541973E7 ; 2.0029938637999997E8 ; 5.233255575409564E9 ; 1.7005549318292788E10 ; 57066.66000000006
94 ; 5.735927124773221E7 ; 2.0029938637999997E8 ; 5.290638253264984E9 ; 1.7205848704672787E10 ; 57680.280000000064
95 ; 5.733468593514687E7 ; 2.0029938637999997E8 ; 5.347997524512716E9 ; 1.7406148091052788E10 ; 58293.90000000007
96 ; 5.7300661057904266E7 ; 2.0029938637999997E8 ; 5.405332210447864E9 ; 1.760644747743279E10 ; 58907.52000000007
97 ; 5.727263594342444E7 ; 2.0029938637999997E8 ; 5.462632871505768E9 ; 1.780674686381279E10 ; 59521.14000000007
98 ; 5.724992352214046E7 ; 2.0029938637999997E8 ; 5.519905507449192E9 ; 1.800704625019279E10 ; 60134.760000000075
99 ; 5.721893497240314E7 ; 2.0029938637999997E8 ; 5.577155430971333E9 ; 1.8207345636572792E10 ; 60748.38000000008
100 ; 5.7190719561738074E7 ; 2.0029938637999997E8 ; 5.634374365943736E9 ; 1.8407645022952793E10 ; 61362.00000000008
101 ; 5.716356080555892E7 ; 2.0029938637999997E8 ; 5.691565085505474E9 ; 1.8607944409332794E10 ; 61975.62000000008
102 ; 5.7141570446647085E7 ; 2.0029938637999997E8 ; 5.748728646311033E9 ; 1.8808243795712795E10 ; 62589.240000000085
103 ; 5.710212907633291E7 ; 2.0029938637999997E8 ; 5.80587021675768E9 ; 1.9008543182092796E10 ; 63202.86000000009
104 ; 5.707187362965246E7 ; 2.0029938637999997E8 ; 5.862972345834013E9 ; 1.9208842568472797E10 ; 63816.48000000009
105 ; 5.7043418081236176E7 ; 2.0029938637999997E8 ; 5.920044219463665E9 ; 1.94091419548528E10 ; 64430.10000000009
106 ; 5.7010779247701526E7 ; 2.0029938637999997E8 ; 5.977087637544901E9 ; 1.96094413412328E10 ; 65043.720000000096
107 ; 5.6977161340561695E7 ; 2.0029938637999997E8 ; 6.034098416792603E9 ; 1.98097407276128E10 ; 65657.3400000001
108 ; 5.69508527662631E7 ; 2.0029938637999997E8 ; 6.091075578133164E9 ; 2.00100401139928E10 ; 66270.9600000001
109 ; 5.690870500008259E7 ; 2.0029938637999997E8 ; 6.148026430899427E9 ; 2.0210339500372803E10 ; 66884.58000000009
110 ; 5.688347002208057E7 ; 2.0029938637999997E8 ; 6.20493513589951E9 ; 2.0410638886752804E10 ; 67498.20000000008
111 ; 5.6843633884853095E7 ; 2.0029938637999997E8 ; 6.261818605921591E9 ; 2.0610938273132805E10 ; 68111.82000000008
112 ; 5.681098289744582E7 ; 2.0029938637999997E8 ; 6.318662239806444E9 ; 2.0811237659512806E10 ; 68725.44000000008
113 ; 5.677592693181093E7 ; 2.0029938637999997E8 ; 6.37547322270389E9 ; 2.1011537045892807E10 ; 69339.06000000007
114 ; 5.673310123673588E7 ; 2.0029938637999997E8 ; 6.432249149635701E9 ; 2.1211836432272808E10 ; 69952.68000000007
115 ; 5.670867718766834E7 ; 2.0029938637999997E8 ; 6.4889822508724375E9 ; 2.141213581865281E10 ; 70566.30000000006
116 ; 5.6666036288230814E7 ; 2.0029938637999997E8 ; 6.545690928060106E9 ; 2.161243520503281E10 ; 71179.92000000006
117 ; 5.6625582199980766E7 ; 2.0029938637999997E8 ; 6.602356964348337E9 ; 2.181273459141281E10 ; 71793.54000000005
118 ; 5.659047359523322E7 ; 2.0029938637999997E8 ; 6.658982546548318E9 ; 2.2013033977792812E10 ; 72407.16000000005
119 ; 5.6541476011022314E7 ; 2.0029938637999997E8 ; 6.715573020143551E9 ; 2.2213333364172813E10 ; 73020.78000000004
120 ; 5.6512114419679314E7 ; 2.0029938637999997E8 ; 6.772114496154573E9 ; 2.2413632750552814E10 ; 73634.40000000004
121 ; 5.6464766121815026E7 ; 2.0029938637999997E8 ; 6.828626610574253E9 ; 2.2613932136932816E10 ; 74248.02000000003
122 ; 5.642684164001975E7 ; 2.0029938637999997E8 ; 6.885091376696068E9 ; 2.2814231523312817E10 ; 74861.64000000003
123 ; 5.638631308582653E7 ; 2.0029938637999997E8 ; 6.941518218336087E9 ; 2.3014530909692818E10 ; 75475.26000000002
124 ; 5.634750720006563E7 ; 2.0029938637999997E8 ; 6.997904531421914E9 ; 2.321483029607282E10 ; 76088.88000000002
125 ; 5.6304366063220434E7 ; 2.0029938637999997E8 ; 7.05425203862198E9 ; 2.341512968245282E10 ; 76702.50000000001
126 ; 5.6263924557748355E7 ; 2.0029938637999997E8 ; 7.1105564046852E9 ; 2.361542906883282E10 ; 77316.12000000001
127 ; 5.621931002983275E7 ; 2.0029938637999997E8 ; 7.166820329242949E9 ; 2.3815728455212822E10 ; 77929.74
128 ; 5.616777729508546E7 ; 2.0029938637999997E8 ; 7.223039639272781E9 ; 2.4016027841592823E10 ; 78543.36
129 ; 5.612630103684406E7 ; 2.0029938637999997E8 ; 7.279207416567867E9 ; 2.4216327227972824E10 ; 79156.98
130 ; 5.607275986108185E7 ; 2.0029938637999997E8 ; 7.335333717604712E9 ; 2.4416626614352825E10 ; 79770.59999999999
131 ; 5.601404661035441E7 ; 2.0029938637999997E8 ; 7.391406477465794E9 ; 2.4616926000732826E10 ; 80384.21999999999
132 ; 5.5943719104297414E7 ; 2.0029938637999997E8 ; 7.447420524076148E9 ; 2.4817225387112827E10 ; 80997.83999999998
133 ; 5.588632073179757E7 ; 2.0029938637999997E8 ; 7.503364243180446E9 ; 2.501752477349283E10 ; 81611.45999999998
134 ; 5.581777998024078E7 ; 2.0029938637999997E8 ; 7.559250563912243E9 ; 2.521782415987283E10 ; 82225.07999999997
135 ; 5.575944126692427E7 ; 2.0029938637999997E8 ; 7.615068343892484E9 ; 2.541812354625283E10 ; 82838.69999999997
136 ; 5.568479802318989E7 ; 2.0029938637999997E8 ; 7.670827785159408E9 ; 2.561842293263283E10 ; 83452.31999999996
137 ; 5.56218753942869E7 ; 2.0029938637999997E8 ; 7.726512583182597E9 ; 2.5818722319012833E10 ; 84065.93999999996
138 ; 5.555389860175151E7 ; 2.0029938637999997E8 ; 7.782134458576884E9 ; 2.6019021705392834E10 ; 84679.55999999995
139 ; 5.549033536829394E7 ; 2.0029938637999997E8 ; 7.837688357178636E9 ; 2.6219321091772835E10 ; 85293.17999999995
140 ; 5.542286752455182E7 ; 2.0029938637999997E8 ; 7.893178692546929E9 ; 2.6419620478152836E10 ; 85906.79999999994
141 ; 5.536026917361395E7 ; 2.0029938637999997E8 ; 7.948601560071481E9 ; 2.6619919864532837E10 ; 86520.41999999994
142 ; 5.528954163655228E7 ; 2.0029938637999997E8 ; 8.003961829245094E9 ; 2.6820219250912838E10 ; 87134.03999999994
143 ; 5.521877225976624E7 ; 2.0029938637999997E8 ; 8.059251370881646E9 ; 2.702051863729284E10 ; 87747.65999999993
144 ; 5.514926223961515E7 ; 2.0029938637999997E8 ; 8.114470143141413E9 ; 2.722081802367284E10 ; 88361.27999999993
145 ; 5.509726931511878E7 ; 2.0029938637999997E8 ; 8.169619405381028E9 ; 2.742111741005284E10 ; 88974.89999999992
146 ; 5.504692861706851E7 ; 2.0029938637999997E8 ; 8.224716674696147E9 ; 2.7621416796432842E10 ; 89588.51999999992
147 ; 5.500095189784762E7 ; 2.0029938637999997E8 ; 8.279763603313215E9 ; 2.7821716182812843E10 ; 90202.13999999991
148 ; 5.495877799091734E7 ; 2.0029938637999997E8 ; 8.334764555211062E9 ; 2.8022015569192844E10 ; 90815.75999999991
149 ; 5.49139970283494E7 ; 2.0029938637999997E8 ; 8.38972333320198E9 ; 2.8222314955572845E10 ; 91429.3799999999
150 ; 5.4856532944468275E7 ; 2.0029938637999997E8 ; 8.4446373302303295E9 ; 2.8422614341952847E10 ; 92042.9999999999
151 ; 5.481438884887199E7 ; 2.0029938637999997E8 ; 8.499493863174798E9 ; 2.8622913728332848E10 ; 92656.6199999999
152 ; 5.476557682611084E7 ; 2.0029938637999997E8 ; 8.55430825202367E9 ; 2.882321311471285E10 ; 93270.23999999989
153 ; 5.4708052993442915E7 ; 2.0029938637999997E8 ; 8.609073828849781E9 ; 2.902351250109285E10 ; 93883.85999999988
154 ; 5.466016441507381E7 ; 2.0029938637999997E8 ; 8.663781881843224E9 ; 2.922381188747285E10 ; 94497.47999999988
155 ; 5.46156569521641E7 ; 2.0029938637999997E8 ; 8.718442046258297E9 ; 2.942411127385285E10 ; 95111.09999999987
156 ; 5.455578584397845E7 ; 2.0029938637999997E8 ; 8.77305770321046E9 ; 2.9624410660232853E10 ; 95724.71999999987
157 ; 5.451529844186102E7 ; 2.0029938637999997E8 ; 8.82761348905444E9 ; 2.9824710046612854E10 ; 96338.33999999987
158 ; 5.446544255640876E7 ; 2.0029938637999997E8 ; 8.8821287874963E9 ; 3.0025009432992855E10 ; 96951.95999999986
159 ; 5.44175726708136E7 ; 2.0029938637999997E8 ; 8.936594230052708E9 ; 3.0225308819372856E10 ; 97565.57999999986
160 ; 5.43559534497198E7 ; 2.0029938637999997E8 ; 8.991011802723522E9 ; 3.0425608205752857E10 ; 98179.19999999985
161 ; 5.4305196926869325E7 ; 2.0029938637999997E8 ; 9.045367756173243E9 ; 3.062590759213286E10 ; 98792.81999999985
162 ; 5.425151612166522E7 ; 2.0029938637999997E8 ; 9.099672953100111E9 ; 3.082620697851286E10 ; 99406.43999999984
163 ; 5.420350786994884E7 ; 2.0029938637999997E8 ; 9.153924469221777E9 ; 3.102650636489286E10 ; 100020.05999999984
164 ; 5.414635940942822E7 ; 2.0029938637999997E8 ; 9.208127977091726E9 ; 3.122680575127286E10 ; 100633.67999999983
165 ; 5.410126992248509E7 ; 2.0029938637999997E8 ; 9.262274336501154E9 ; 3.1427105137652863E10 ; 101247.29999999983
166 ; 5.404221132861339E7 ; 2.0029938637999997E8 ; 9.31637560642364E9 ; 3.1627404524032864E10 ; 101860.91999999982
167 ; 5.3989375099670194E7 ; 2.0029938637999997E8 ; 9.370417817752253E9 ; 3.1827703910412865E10 ; 102474.53999999982
168 ; 5.393869748876129E7 ; 2.0029938637999997E8 ; 9.424407192851923E9 ; 3.2028003296792866E10 ; 103088.15999999981
169 ; 5.388303020137847E7 ; 2.0029938637999997E8 ; 9.478345890340685E9 ; 3.2228302683172867E10 ; 103701.77999999981
170 ; 5.383134806929608E7 ; 2.0029938637999997E8 ; 9.532228920542063E9 ; 3.2428602069552868E10 ; 104315.3999999998
171 ; 5.377934587572599E7 ; 2.0029938637999997E8 ; 9.586060268611359E9 ; 3.262890145593287E10 ; 104929.0199999998
172 ; 5.371923554239733E7 ; 2.0029938637999997E8 ; 9.639839614487085E9 ; 3.282920084231287E10 ; 105542.6399999998
