CSV File for the Network on Day 260
1 - Minute m 
2 - Power Consumed at minute m 
3 - Power Produced at minute m 
4 - Energy Consumed since the beginning of the day 
5 - Energy Produced since the beginning of the day 
6 - Energy Lost since the beginning of the day 
 
0 ; 1.2520038637951791E7 ; 6.344938559350193E8 ; 0.0 ; 0.0 ; 0.0
1 ; 1.2550189658892471E7 ; 6.35404201694948E8 ; 1.2520038637951791E7 ; 6.344938559350193E8 ; 0.0
2 ; 1.2589909584957708E7 ; 6.381679772666639E8 ; 2.5070228296844263E7 ; 1.2698980576299672E9 ; 0.0
3 ; 1.2630025360284384E7 ; 6.427852027489545E8 ; 3.766013788180197E7 ; 1.9080660348966312E9 ; 0.0
4 ; 1.2675147687483214E7 ; 6.492558962138144E8 ; 5.029016324208635E7 ; 2.550851237645586E9 ; 0.0
5 ; 1.2739290467168175E7 ; 6.575800735862887E8 ; 6.2965310929569565E7 ; 3.2001071338594003E9 ; 0.0
6 ; 1.2825559449934399E7 ; 6.677577485361253E8 ; 7.570460139673774E7 ; 3.857687207445689E9 ; 0.0
7 ; 1.2945070378104096E7 ; 6.797889323829172E8 ; 8.853016084667213E7 ; 4.525444955981814E9 ; 0.0
8 ; 1.3118364980588874E7 ; 6.936736340162485E8 ; 1.0147523122477622E8 ; 5.205233888364732E9 ; 0.0
9 ; 1.339806425928773E7 ; 7.094118598321532E8 ; 1.1459359620536509E8 ; 5.8989075223809805E9 ; 0.0
10 ; 1.382648681544032E7 ; 7.270036136869442E8 ; 1.2799166046465282E8 ; 6.608319382213134E9 ; 0.0
11 ; 1.4511094770032993E7 ; 7.464488968691903E8 ; 1.4181814728009313E8 ; 7.335322995900078E9 ; 0.0
12 ; 1.5610124204548465E7 ; 7.677477080903226E8 ; 1.5632924205012614E8 ; 8.081771892769268E9 ; 0.0
13 ; 1.6663346863665137E7 ; 7.909000434940282E8 ; 1.719393662546746E8 ; 8.84951960085959E9 ; 0.0
14 ; 1.6790993813364394E7 ; 8.159058966842737E8 ; 1.8860271311833975E8 ; 9.640419644353619E9 ; 0.0
15 ; 1.6831320388713937E7 ; 8.427652587714736E8 ; 2.0539370693170413E8 ; 1.0456325541037891E10 ; 0.0
16 ; 1.6868871048988853E7 ; 8.714781184360366E8 ; 2.2222502732041806E8 ; 1.1299090799809364E10 ; 0.0
17 ; 1.6915028577500246E7 ; 9.020444620082139E8 ; 2.390938983694069E8 ; 1.2170568918245401E10 ; 0.0
18 ; 1.6959152879663453E7 ; 9.344642735629601E8 ; 2.5600892694690716E8 ; 1.3072613380253614E10 ; 0.0
19 ; 1.700454792734132E7 ; 9.687375350282812E8 ; 2.7296807982657063E8 ; 1.4007077653816574E10 ; 0.0
20 ; 1.7049016085472494E7 ; 1.0048642263053894E9 ; 2.89972627753912E8 ; 1.4975815188844856E10 ; 0.0
21 ; 1.708832818503341E7 ; 1.0428443253988647E9 ; 3.0702164383938444E8 ; 1.5980679415150246E10 ; 0.0
22 ; 1.713630533921855E7 ; 1.0826778085549383E9 ; 3.241099720244179E8 ; 1.702352374054911E10 ; 0.0
23 ; 1.7172947404103525E7 ; 1.1243646504059973E9 ; 3.4124627736363643E8 ; 1.810620154910405E10 ; 0.0
24 ; 1.723333441166965E7 ; 1.1679048241194096E9 ; 3.5841922476773995E8 ; 1.9230566199510048E10 ; 0.0
25 ; 1.7272392225818347E7 ; 1.2054265469379358E9 ; 3.756525591794096E8 ; 2.0398471023629456E10 ; 0.0
26 ; 1.7315942987376794E7 ; 1.205451076553145E9 ; 3.9292495140522796E8 ; 2.160389757056739E10 ; 0.0
27 ; 1.7355404109787174E7 ; 1.2054769984059749E9 ; 4.1024089439260477E8 ; 2.2809348647120537E10 ; 0.0
28 ; 1.7403242004728638E7 ; 1.2055042813161151E9 ; 4.2759629850239193E8 ; 2.4014825645526512E10 ; 0.0
29 ; 1.7441371606480468E7 ; 1.2055328933865008E9 ; 4.4499954050712055E8 ; 2.522032992684263E10 ; 0.0
30 ; 1.7484943892550115E7 ; 1.2055628021434457E9 ; 4.62440912113601E8 ; 2.642586282022913E10 ; 0.0
31 ; 1.752942716733792E7 ; 1.2055939746708994E9 ; 4.7992585600615114E8 ; 2.7631425622372574E10 ; 0.0
32 ; 1.7570967304004785E7 ; 1.205626377738019E9 ; 4.9745528317348903E8 ; 2.8837019597043472E10 ; 0.0
33 ; 1.7605845836585503E7 ; 1.2056599779194105E9 ; 5.150262504774938E8 ; 3.004264597478149E10 ; 0.0
34 ; 1.764323544967538E7 ; 1.2056947417075706E9 ; 5.3263209631407934E8 ; 3.12483059527009E10 ; 0.0
35 ; 1.767549309694116E7 ; 1.2057306356172054E9 ; 5.502753317637547E8 ; 3.245400069440847E10 ; 0.0
36 ; 1.771920776479826E7 ; 1.2057676262812471E9 ; 5.679508248606958E8 ; 3.3659731330025677E10 ; 0.0
37 ; 1.774793830783864E7 ; 1.205805680538513E9 ; 5.856700326254941E8 ; 3.486549895630692E10 ; 0.0
38 ; 1.77853430071547E7 ; 1.2058447655130684E9 ; 6.034179709333328E8 ; 3.6071304636845436E10 ; 0.0
39 ; 1.781883875698612E7 ; 1.2058848486854434E9 ; 6.212033139404875E8 ; 3.7277149402358505E10 ; 0.0
40 ; 1.784617086659773E7 ; 1.2059258979559426E9 ; 6.390221526974736E8 ; 3.8483034251043945E10 ; 0.0
41 ; 1.786968108976882E7 ; 1.2059678817003436E9 ; 6.568683235640714E8 ; 3.9688960148999886E10 ; 0.0
42 ; 1.790362546030326E7 ; 1.2060107688183415E9 ; 6.747380046538402E8 ; 4.0894928030700226E10 ; 0.0
43 ; 1.792382150273219E7 ; 1.206054528775127E9 ; 6.926416301141435E8 ; 4.210093879951857E10 ; 0.0
44 ; 1.7956437620602474E7 ; 1.2060991316365213E9 ; 7.105654516168756E8 ; 4.330699332829369E10 ; 0.0
45 ; 1.7978523907448597E7 ; 1.206144548098103E9 ; 7.285218892374781E8 ; 4.4513092459930214E10 ; 0.0
46 ; 1.7993047414026108E7 ; 1.2061907495087724E9 ; 7.465004131449268E8 ; 4.571923700802832E10 ; 0.0
47 ; 1.8008707572329957E7 ; 1.2062377078892026E9 ; 7.644934605589529E8 ; 4.6925427757537094E10 ; 0.0
48 ; 1.8025351871387396E7 ; 1.2062853959456146E9 ; 7.825021681312829E8 ; 4.81316654654263E10 ; 0.0
49 ; 1.8038498398107316E7 ; 1.206333787079308E9 ; 8.005275200026703E8 ; 4.933795086137192E10 ; 0.0
50 ; 1.804929724437619E7 ; 1.2063828553923671E9 ; 8.185660184007776E8 ; 5.0544284648451225E10 ; 0.0
51 ; 1.805746275626596E7 ; 1.2064325756899307E9 ; 8.366153156451538E8 ; 5.175066750384359E10 ; 0.0
52 ; 1.8073821776729893E7 ; 1.206482923479411E9 ; 8.546727784014198E8 ; 5.295710007953352E10 ; 0.0
53 ; 1.8079645048573434E7 ; 1.206533874967012E9 ; 8.727466001781497E8 ; 5.416358300301293E10 ; 0.0
54 ; 1.808749014516879E7 ; 1.2065854070518787E9 ; 8.908262452267232E8 ; 5.537011687797994E10 ; 0.0
55 ; 1.8096979363470558E7 ; 1.206637497318186E9 ; 9.08913735371892E8 ; 5.657670228503182E10 ; 0.0
56 ; 1.8101178679833405E7 ; 1.2066901240254517E9 ; 9.270107147353625E8 ; 5.7783339782350006E10 ; 0.0
57 ; 1.8115311711828437E7 ; 1.2067432660973334E9 ; 9.45111893415196E8 ; 5.899002990637546E10 ; 0.0
58 ; 1.811813913699218E7 ; 1.206796903109148E9 ; 9.632272051270244E8 ; 6.019677317247279E10 ; 0.0
59 ; 1.8135325395526275E7 ; 1.2068510152743313E9 ; 9.813453442640166E8 ; 6.140357007558194E10 ; 0.0
60 ; 1.814219236716924E7 ; 1.2069055834300323E9 ; 9.994806696595429E8 ; 6.261042109085627E10 ; 0.0
61 ; 1.8144055561649676E7 ; 1.2069605890220172E9 ; 1.0176228620267122E9 ; 6.38173266742863E10 ; 0.0
62 ; 1.815391369658659E7 ; 1.2070160140890446E9 ; 1.0357669175883619E9 ; 6.502428726330832E10 ; 0.0
63 ; 1.8160731542117346E7 ; 1.207071841246846E9 ; 1.0539208312849485E9 ; 6.623130327739736E10 ; 0.0
64 ; 1.8166861338615045E7 ; 1.207128053671842E9 ; 1.0720815628270658E9 ; 6.743837511864421E10 ; 0.0
65 ; 1.816904719896949E7 ; 1.2071846350847013E9 ; 1.090248424165681E9 ; 6.8645503172316055E10 ; 0.0
66 ; 1.8182437409099575E7 ; 1.2072415697338374E9 ; 1.1084174713646505E9 ; 6.985268780740076E10 ; 0.0
67 ; 1.8185061372701183E7 ; 1.2072988423789272E9 ; 1.12659990877375E9 ; 7.10599293771346E10 ; 0.0
68 ; 1.8183503029589415E7 ; 1.207356438274528E9 ; 1.1447849701464512E9 ; 7.226722821951352E10 ; 0.0
69 ; 1.8196848420945007E7 ; 1.207414343153847E9 ; 1.1629684731760406E9 ; 7.347458465778804E10 ; 0.0
70 ; 1.819818666714362E7 ; 1.207472543212725E9 ; 1.1811653215969856E9 ; 7.46819990009419E10 ; 0.0
71 ; 1.8197169440628298E7 ; 1.2075310250938735E9 ; 1.1993635082641292E9 ; 7.588947154415462E10 ; 0.0
72 ; 1.820406568771597E7 ; 1.2075897758714044E9 ; 1.2175606777047575E9 ; 7.709700256924849E10 ; 0.0
73 ; 1.8208604279719874E7 ; 1.2076487830356827E9 ; 1.2357647433924735E9 ; 7.830459234511989E10 ; 0.0
74 ; 1.8211668244089745E7 ; 1.2077080344785287E9 ; 1.2539733476721933E9 ; 7.951224112815558E10 ; 0.0
75 ; 1.821765114336476E7 ; 1.2077675184787855E9 ; 1.2721850159162831E9 ; 8.071994916263411E10 ; 0.0
76 ; 1.821402855484195E7 ; 1.2078272236882734E9 ; 1.2904026670596478E9 ; 8.19277166811129E10 ; 0.0
77 ; 1.8214161258171834E7 ; 1.2078871391181319E9 ; 1.3086166956144898E9 ; 8.313554390480118E10 ; 0.0
78 ; 1.8211219151832454E7 ; 1.207947254125572E9 ; 1.3268308568726616E9 ; 8.434343104391931E10 ; 0.0
79 ; 1.819989562647269E7 ; 1.2080075584010267E9 ; 1.345042076024494E9 ; 8.555137829804488E10 ; 0.0
80 ; 1.818766430204159E7 ; 1.2080680419557135E9 ; 1.3632419716509666E9 ; 8.67593858564459E10 ; 0.0
81 ; 1.8179584599171788E7 ; 1.2081286951096036E9 ; 1.3814296359530082E9 ; 8.796745389840163E10 ; 0.0
82 ; 1.815971327729409E7 ; 1.208189508479796E9 ; 1.39960922055218E9 ; 8.917558259351123E10 ; 0.0
83 ; 1.8148314174842034E7 ; 1.208250472969292E9 ; 1.4177689338294742E9 ; 9.038377210199103E10 ; 0.0
84 ; 1.813749402387213E7 ; 1.2083115797561662E9 ; 1.4359172480043163E9 ; 9.159202257496033E10 ; 0.0
85 ; 1.8129584537081398E7 ; 1.2083728202831264E9 ; 1.4540547420281885E9 ; 9.280033415471649E10 ; 0.0
86 ; 1.8112382437462345E7 ; 1.2084341862474537E9 ; 1.47218432656527E9 ; 9.400870697499962E10 ; 0.0
87 ; 1.8103504265872844E7 ; 1.2084956695913155E9 ; 1.4902967090027323E9 ; 9.521714116124707E10 ; 0.0
88 ; 1.808265653271826E7 ; 1.208557262492444E9 ; 1.5084002132686052E9 ; 9.642563683083838E10 ; 0.0
89 ; 1.8067549419405185E7 ; 1.208618957355167E9 ; 1.5264828698013234E9 ; 9.763419409333083E10 ; 0.0
90 ; 1.805747370442553E7 ; 1.208680746801784E9 ; 1.5445504192207286E9 ; 9.884281305068599E10 ; 0.0
91 ; 1.8042546742351882E7 ; 1.2087426236642773E9 ; 1.5626078929251542E9 ; 1.0005149379748778E11 ; 0.0
92 ; 1.802415018054026E7 ; 1.2088045809763455E9 ; 1.580650439667506E9 ; 1.0126023642115205E11 ; 0.0
93 ; 1.8003229536856197E7 ; 1.2088666119657524E9 ; 1.5986745898480463E9 ; 1.024690410021284E11 ; 0.0
94 ; 1.798543112311508E7 ; 1.208928710046977E9 ; 1.6166778193849025E9 ; 1.0367790761409416E11 ; 0.0
95 ; 1.7977294415238153E7 ; 1.2089908688141587E9 ; 1.6346632505080175E9 ; 1.0488683632414114E11 ; 0.0
96 ; 1.7960499988599803E7 ; 1.2090530820343235E9 ; 1.6526405449232557E9 ; 1.060958271929553E11 ; 0.0
97 ; 1.793929485647909E7 ; 1.2091153436408825E9 ; 1.6706010449118555E9 ; 1.0730488027498962E11 ; 0.0
98 ; 1.7923257277731992E7 ; 1.2091776477273936E9 ; 1.6885403397683346E9 ; 1.0851399561863051E11 ; 0.0
99 ; 1.7902388819015406E7 ; 1.209239988541576E9 ; 1.7064635970460665E9 ; 1.097231732663579E11 ; 0.0
100 ; 1.788245448628533E7 ; 1.2093023604795659E9 ; 1.724365985865082E9 ; 1.1093241325489948E11 ; 0.0
101 ; 1.7875051796726495E7 ; 1.2093647580804074E9 ; 1.7422484403513675E9 ; 1.1214171561537904E11 ; 0.0
102 ; 1.7849744562085923E7 ; 1.2094271760207682E9 ; 1.760123492148094E9 ; 1.1335108037345946E11 ; 0.0
103 ; 1.7838116816087715E7 ; 1.209489609109868E9 ; 1.7779732367101798E9 ; 1.1456050754948022E11 ; 0.0
104 ; 1.7817173332064852E7 ; 1.2095520522846193E9 ; 1.7958113535262675E9 ; 1.1576999715859009E11 ; 0.0
105 ; 1.7797540692577194E7 ; 1.20961450060496E9 ; 1.8136285268583324E9 ; 1.1697954921087471E11 ; 0.0
106 ; 1.7771695895786934E7 ; 1.2096769492493825E9 ; 1.8314260675509095E9 ; 1.1818916371147968E11 ; 0.0
107 ; 1.775342314476401E7 ; 1.209739393510643E9 ; 1.8491977634466965E9 ; 1.1939884066072906E11 ; 0.0
108 ; 1.773371582108223E7 ; 1.2098018287916439E9 ; 1.8669511865914605E9 ; 1.2060858005423972E11 ; 0.0
109 ; 1.7716178376861494E7 ; 1.2098642506014907E9 ; 1.8846849024125426E9 ; 1.2181838188303136E11 ; 0.0
110 ; 1.768961786419129E7 ; 1.209926654551702E9 ; 1.9024010807894042E9 ; 1.2302824613363284E11 ; 0.0
111 ; 1.7680179815006625E7 ; 1.2099890363525798E9 ; 1.9200906986535954E9 ; 1.2423817278818454E11 ; 0.0
112 ; 1.7647116899059344E7 ; 1.2100513918097246E9 ; 1.9377708784686022E9 ; 1.2544816182453712E11 ; 0.0
113 ; 1.7626439656057797E7 ; 1.210113716820693E9 ; 1.9554179953676615E9 ; 1.2665821321634685E11 ; 0.0
114 ; 1.7601118560811162E7 ; 1.2101760073717916E9 ; 1.9730444350237193E9 ; 1.2786832693316754E11 ; 0.0
115 ; 1.7582449636403702E7 ; 1.2102382595349984E9 ; 1.9906455535845304E9 ; 1.2907850294053934E11 ; 0.0
116 ; 1.7561020881464638E7 ; 1.2103004694650128E9 ; 2.0082280032209342E9 ; 1.3028874120007434E11 ; 0.0
117 ; 1.753436636157296E7 ; 1.2103626333964195E9 ; 2.0257890241023989E9 ; 1.3149904166953935E11 ; 0.0
118 ; 1.751497977015621E7 ; 1.2104247476409726E9 ; 2.0433233904639719E9 ; 1.3270940430293578E11 ; 0.0
119 ; 1.7491916104734916E7 ; 1.2104868085849814E9 ; 2.060838370234128E9 ; 1.3391982905057675E11 ; 0.0
120 ; 1.7457539723590545E7 ; 1.2105488126868086E9 ; 2.078330286338863E9 ; 1.3513031585916173E11 ; 0.0
121 ; 1.7438098131072722E7 ; 1.2106107564744644E9 ; 2.0957878260624535E9 ; 1.3634086467184854E11 ; 0.0
122 ; 1.7412502552151054E7 ; 1.2106726365432947E9 ; 2.1132259241935263E9 ; 1.37551475428323E11 ; 0.0
123 ; 1.7386238366179146E7 ; 1.210734449553767E9 ; 2.1306384267456772E9 ; 1.387621480648663E11 ; 0.0
124 ; 1.7366391385987826E7 ; 1.2107961922293386E9 ; 2.1480246651118565E9 ; 1.3997288251442007E11 ; 0.0
125 ; 1.7332794106453758E7 ; 1.210857861354412E9 ; 2.165391056497844E9 ; 1.411836787066494E11 ; 0.0
126 ; 1.7309802781126138E7 ; 1.2109194537723708E9 ; 2.182723850604298E9 ; 1.423945365680038E11 ; 0.0
127 ; 1.728243605458272E7 ; 1.2109809663836913E9 ; 2.200033653385424E9 ; 1.4360545602177618E11 ; 0.0
128 ; 1.7253939614309475E7 ; 1.2110423961441288E9 ; 2.2173160894400067E9 ; 1.4481643698815988E11 ; 0.0
129 ; 1.7230641332632773E7 ; 1.2111037400629764E9 ; 2.234570029054316E9 ; 1.4602747938430402E11 ; 0.0
130 ; 1.7194217303264443E7 ; 1.2111649952013893E9 ; 2.2518006703869486E9 ; 1.47238583124367E11 ; 0.0
131 ; 1.7155057129711486E7 ; 1.2112261586707752E9 ; 2.268994887690213E9 ; 1.484497481195684E11 ; 0.0
132 ; 1.7110828133215733E7 ; 1.211287227631247E9 ; 2.286149944819925E9 ; 1.4966097427823917E11 ; 0.0
133 ; 1.707158379617721E7 ; 1.2113481992901347E9 ; 2.3032607729531407E9 ; 1.5087226150587042E11 ; 0.0
134 ; 1.7031687569250874E7 ; 1.2114090709005556E9 ; 2.320332356749318E9 ; 1.5208360970516055E11 ; 0.0
135 ; 1.6987300608184166E7 ; 1.2114698397600384E9 ; 2.337364044318569E9 ; 1.532950187760611E11 ; 0.0
136 ; 1.6950088722709745E7 ; 1.211530503209199E9 ; 2.3543513449267535E9 ; 1.5450648861582114E11 ; 0.0
137 ; 1.690386033826749E7 ; 1.2115910586304693E9 ; 2.371301433649463E9 ; 1.5571801911903033E11 ; 0.0
138 ; 1.6858681834575787E7 ; 1.2116515034468713E9 ; 2.3882052939877305E9 ; 1.569296101776608E11 ; 0.0
139 ; 1.6812164403581224E7 ; 1.21171183512084E9 ; 2.405063975822306E9 ; 1.5814126168110767E11 ; 0.0
140 ; 1.6770565170189243E7 ; 1.211772051153088E9 ; 2.4218761402258873E9 ; 1.5935297351622852E11 ; 0.0
141 ; 1.6725768529849563E7 ; 1.2118321490815163E9 ; 2.4386467053960767E9 ; 1.605647455673816E11 ; 0.0
142 ; 1.6682762337303407E7 ; 1.2118921264801621E9 ; 2.455372473925926E9 ; 1.617765777164631E11 ; 0.0
143 ; 1.6632079374922605E7 ; 1.2119519809581876E9 ; 2.47205523626323E9 ; 1.6298846984294327E11 ; 0.0
144 ; 1.6598508679457132E7 ; 1.2120117101589077E9 ; 2.4886873156381526E9 ; 1.6420042182390146E11 ; 0.0
145 ; 1.656234228635354E7 ; 1.2120713117588506E9 ; 2.50528582431761E9 ; 1.6541243353406036E11 ; 0.0
146 ; 1.6543239212315928E7 ; 1.2121307834668558E9 ; 2.5218481666039634E9 ; 1.666245048458192E11 ; 0.0
147 ; 1.6513049275223346E7 ; 1.2121901230232036E9 ; 2.5383914058162794E9 ; 1.6783663562928607E11 ; 0.0
148 ; 1.6480382699786842E7 ; 1.2122493281987777E9 ; 2.5549044550915027E9 ; 1.6904882575230927E11 ; 0.0
149 ; 1.6451179543474535E7 ; 1.2123083967942572E9 ; 2.5713848377912893E9 ; 1.7026107508050806E11 ; 0.0
150 ; 1.6426232660287993E7 ; 1.212367326639338E9 ; 2.587836017334764E9 ; 1.714733834773023E11 ; 0.0
151 ; 1.639531930831914E7 ; 1.2124261155919852E9 ; 2.604262249995052E9 ; 1.7268575080394165E11 ; 0.0
152 ; 1.637496549258963E7 ; 1.2124847615377073E9 ; 2.620657569303371E9 ; 1.7389817691953363E11 ; 0.0
153 ; 1.6344173742889665E7 ; 1.2125432623888621E9 ; 2.6370325347959604E9 ; 1.7511066168107135E11 ; 0.0
154 ; 1.6310994728680465E7 ; 1.2126016160839841E9 ; 2.6533767085388503E9 ; 1.763232049434602E11 ; 0.0
155 ; 1.6282391592821397E7 ; 1.2126598205871353E9 ; 2.669687703267531E9 ; 1.775358065595442E11 ; 0.0
156 ; 1.6264939394708006E7 ; 1.2127178738872828E9 ; 2.6859700948603525E9 ; 1.7874846638013132E11 ; 0.0
157 ; 1.622125453212746E7 ; 1.212775773997696E9 ; 2.7022350342550607E9 ; 1.799611842540186E11 ; 0.0
158 ; 1.6197206937673967E7 ; 1.2128335189553638E9 ; 2.718456288787188E9 ; 1.811739600280163E11 ; 0.0
159 ; 1.6166859131640721E7 ; 1.212891106820436E9 ; 2.734653495724862E9 ; 1.8238679354697165E11 ; 0.0
160 ; 1.6141876274451915E7 ; 1.2129485356756814E9 ; 2.750820354856503E9 ; 1.8359968465379208E11 ; 0.0
161 ; 1.6106103855749756E7 ; 1.213005803625966E9 ; 2.7669622311309547E9 ; 1.8481263318946777E11 ; 0.0
162 ; 1.6075398031892356E7 ; 1.2130629087977505E9 ; 2.7830683349867043E9 ; 1.8602563899309375E11 ; 0.0
163 ; 1.6045946253484674E7 ; 1.213119849338601E9 ; 2.7991437330185966E9 ; 1.872387019018915E11 ; 0.0
164 ; 1.6021590809801482E7 ; 1.2131766234167242E9 ; 2.8151896792720814E9 ; 1.884518217512301E11 ; 0.0
165 ; 1.5993747606216364E7 ; 1.2132332292205102E9 ; 2.831211270081883E9 ; 1.8966499837464682E11 ; 0.0
166 ; 1.5960780905415252E7 ; 1.2132896649580986E9 ; 2.8472050176880994E9 ; 1.9087823160386734E11 ; 0.0
167 ; 1.592763695213248E7 ; 1.2133459288569531E9 ; 2.8631657985935144E9 ; 1.9209152126882544E11 ; 0.0
168 ; 1.5904810299920447E7 ; 1.2134020191634557E9 ; 2.879093435545647E9 ; 1.933048671976824E11 ; 0.0
169 ; 1.5878386314888448E7 ; 1.2134579341425128E9 ; 2.8949982458455677E9 ; 1.9451826921684586E11 ; 0.0
170 ; 1.584528148972113E7 ; 1.2135136720771725E9 ; 2.910876632160456E9 ; 1.9573172715098837E11 ; 0.0
171 ; 1.5808827911370989E7 ; 1.2135692312682602E9 ; 2.9267219136501775E9 ; 1.9694524082306555E11 ; 0.0
172 ; 1.5781270896038108E7 ; 1.213624610034021E9 ; 2.942530741561548E9 ; 1.981588100543338E11 ; 0.0
173 ; 1.5754525751240281E7 ; 1.2136798067097778E9 ; 2.9583120124575863E9 ; 1.9937243466436783E11 ; 0.0
174 ; 1.5731011536841106E7 ; 1.2137348196475987E9 ; 2.9740665382088265E9 ; 2.005861144710776E11 ; 0.0
175 ; 1.5709543315097354E7 ; 1.2137896472159786E9 ; 2.9897975497456675E9 ; 2.0179984929072522E11 ; 0.0
176 ; 1.5688478025952594E7 ; 1.2138442877995267E9 ; 3.005507093060765E9 ; 2.030136389379412E11 ; 0.0
177 ; 1.5656805203207947E7 ; 1.2138987397986703E9 ; 3.0211955710867176E9 ; 2.0422748322574072E11 ; 0.0
178 ; 1.563449511323201E7 ; 1.2139530016293619E9 ; 3.0368523762899256E9 ; 2.054413819655394E11 ; 0.0
179 ; 1.5615018471630968E7 ; 1.2140070717228029E9 ; 3.0524868714031577E9 ; 2.0665533496716876E11 ; 0.0
180 ; 1.5589962824771542E7 ; 1.2140609485251703E9 ; 3.0681018898747888E9 ; 2.0786934203889157E11 ; 0.0
181 ; 1.5568159792916678E7 ; 1.2141146304973578E9 ; 3.08369185269956E9 ; 2.0908340298741675E11 ; 0.0
182 ; 1.5542422909104144E7 ; 1.2141681161147199E9 ; 3.099260012492477E9 ; 2.102975176179141E11 ; 0.0
183 ; 1.5519996572154418E7 ; 1.2142214038668299E9 ; 3.1148024354015813E9 ; 2.115116857340288E11 ; 0.0
184 ; 1.5498557989432557E7 ; 1.2142744922572422E9 ; 3.130322431973736E9 ; 2.1272590713789563E11 ; 0.0
185 ; 1.5477517661601683E7 ; 1.2143273798032627E9 ; 3.145820989963168E9 ; 2.1394018163015286E11 ; 0.0
186 ; 1.5452434936396366E7 ; 1.214380065035729E9 ; 3.1612985076247697E9 ; 2.1515450900995612E11 ; 0.0
187 ; 1.5433568198933758E7 ; 1.2144325464987957E9 ; 3.1767509425611663E9 ; 2.1636888907499185E11 ; 0.0
188 ; 1.539832641520413E7 ; 1.2144848227497268E9 ; 3.1921845107601E9 ; 2.1758332162149066E11 ; 0.0
189 ; 1.5385338694878211E7 ; 1.214536892358695E9 ; 3.207582837175304E9 ; 2.187978064442404E11 ; 0.0
190 ; 1.53626259836368E7 ; 1.214588753908589E9 ; 3.222968175870182E9 ; 2.200123433365991E11 ; 0.0
191 ; 1.5330936364706403E7 ; 1.2146404059948237E9 ; 3.238330801853819E9 ; 2.212269320905077E11 ; 0.0
192 ; 1.5313040938682742E7 ; 1.2146918472251613E9 ; 3.2536617382185254E9 ; 2.224415724965025E11 ; 0.0
193 ; 1.5288184919850992E7 ; 1.2147430762195332E9 ; 3.268974779157208E9 ; 2.2365626434372766E11 ; 0.0
194 ; 1.5265042380425986E7 ; 1.214794091609871E9 ; 3.284262964077059E9 ; 2.248710074199472E11 ; 0.0
195 ; 1.5246892730114184E7 ; 1.21484489203994E9 ; 3.2995280064574847E9 ; 2.2608580151155707E11 ; 0.0
