CSV File for the Network on Day 179
1 - Minute m 
2 - Power Consumed at minute m 
3 - Power Produced at minute m 
4 - Energy Consumed since the beginning of the day 
5 - Energy Produced since the beginning of the day 
6 - Energy Lost since the beginning of the day 
 
0 ; 9250921.600174503 ; 6.345797128782836E8 ; 0.0 ; 0.0 ; 0.0
1 ; 9272160.410291295 ; 6.354901582085688E8 ; 9250921.600174503 ; 6.345797128782836E8 ; 0.0
2 ; 9314766.573302576 ; 6.38254025036046E8 ; 1.85230820104658E7 ; 1.2700698710868526E9 ; 0.0
3 ; 9369383.208258532 ; 6.428713327750826E8 ; 2.7837848583768375E7 ; 1.9083238961228986E9 ; 0.0
4 ; 9418332.087143866 ; 6.493420988722701E8 ; 3.720723179202691E7 ; 2.551195228897981E9 ; 0.0
5 ; 9481853.510150388 ; 6.576663386937327E8 ; 4.6625563879170775E7 ; 3.2005373277702513E9 ; 0.0
6 ; 9566778.155007219 ; 6.678440654236308E8 ; 5.610741738932116E7 ; 3.858203666463984E9 ; 0.0
7 ; 9694850.128941525 ; 6.798752899753965E8 ; 6.5674195544328384E7 ; 4.526047731887615E9 ; 0.0
8 ; 9881940.796426501 ; 6.937600209170742E8 ; 7.536904567326991E7 ; 5.205923021863011E9 ; 0.0
9 ; 1.0149892177214222E7 ; 7.094982644119552E8 ; 8.525098646969642E7 ; 5.899683042780086E9 ; 0.0
10 ; 1.0588393546533767E7 ; 7.270900241754625E8 ; 9.540087864691064E7 ; 6.60918130719204E9 ; 0.0
11 ; 1.1279005252027467E7 ; 7.465353014489925E8 ; 1.059892721934444E8 ; 7.336271331367503E9 ; 0.0
12 ; 1.2377498345419668E7 ; 7.678340949911484E8 ; 1.1726827744547187E8 ; 8.082806632816496E9 ; 0.0
13 ; 1.3438852752213288E7 ; 7.909864010865076E8 ; 1.2964577579089153E8 ; 8.850640727807644E9 ; 0.0
14 ; 1.3558378392938362E7 ; 8.159922135717793E8 ; 1.4308462854310483E8 ; 9.641627128894152E9 ; 0.0
15 ; 1.3606567508076053E7 ; 8.428515238789179E8 ; 1.566430069360432E8 ; 1.045761934246593E10 ; 0.0
16 ; 1.3660695109479077E7 ; 8.715643210944923E8 ; 1.7024957444411924E8 ; 1.1300470866344849E10 ; 0.0
17 ; 1.3703823570394661E7 ; 9.021305920343418E8 ; 1.839102695535983E8 ; 1.217203518743934E10 ; 0.0
18 ; 1.375523717024665E7 ; 9.345503213323421E8 ; 1.9761409312399298E8 ; 1.3074165779473682E10 ; 0.0
19 ; 1.3808813512492247E7 ; 9.688234915419021E8 ; 2.1136933029423964E8 ; 1.4008716100806025E10 ; 0.0
20 ; 1.3851841107146712E7 ; 1.0049500832486538E9 ; 2.2517814380673188E8 ; 1.4977539592347927E10 ; 0.0
21 ; 1.3895927272077896E7 ; 1.0429300751927001E9 ; 2.390299849138786E8 ; 1.598248967559658E10 ; 0.0
22 ; 1.3951434387470853E7 ; 1.0827634443986893E9 ; 2.5292591218595648E8 ; 1.702541975078928E10 ; 0.0
23 ; 1.3995604557314636E7 ; 1.1244501663119748E9 ; 2.6687734657342732E8 ; 1.810818319518797E10 ; 0.0
24 ; 1.4042499097843273E7 ; 1.1679902149391055E9 ; 2.8087295113074195E8 ; 1.9232633361499943E10 ; 0.0
25 ; 1.409528065937021E7 ; 1.205511808380057E9 ; 2.9491545022858524E8 ; 2.040062357643905E10 ; 0.0
26 ; 1.4147457670680583E7 ; 1.205536205193739E9 ; 3.090107308879554E8 ; 2.1606135384819107E10 ; 0.0
27 ; 1.4192413793915456E7 ; 1.2055619916910317E9 ; 3.23158188558636E8 ; 2.2811671590012848E10 ; 0.0
28 ; 1.424130990501206E7 ; 1.2055891375571163E9 ; 3.3735060235255146E8 ; 2.401723358170388E10 ; 0.0
29 ; 1.4288101672116088E7 ; 1.2056176117494612E9 ; 3.5159191225756353E8 ; 2.5222822719260998E10 ; 0.0
30 ; 1.4334121172000973E7 ; 1.205647382632049E9 ; 3.6588001392967963E8 ; 2.642844033101046E10 ; 0.0
31 ; 1.4371422661892686E7 ; 1.2056784181043596E9 ; 3.802141351016806E8 ; 2.763408771364251E10 ; 0.0
32 ; 1.442316337141063E7 ; 1.2057106857243211E9 ; 3.945855577635733E8 ; 2.883976613174687E10 ; 0.0
33 ; 1.4467711530655036E7 ; 1.2057441528245935E9 ; 4.090087211349839E8 ; 3.0045476817471188E10 ; 0.0
34 ; 1.4511111952889767E7 ; 1.2057787866216998E9 ; 4.234764326656389E8 ; 3.125122097029578E10 ; 0.0
35 ; 1.4546980500859715E7 ; 1.2058145543176641E9 ; 4.3798754461852866E8 ; 3.245699975691748E10 ; 0.0
36 ; 1.4590529454085812E7 ; 1.2058514231939502E9 ; 4.525345251193884E8 ; 3.3662814311235146E10 ; 0.0
37 ; 1.4628671864049584E7 ; 1.205889360697605E9 ; 4.671250545734742E8 ; 3.486866573442909E10 ; 0.0
38 ; 1.4670091680347528E7 ; 1.2059283345196278E9 ; 4.8175372643752384E8 ; 3.607455509512669E10 ; 0.0
39 ; 1.470384736143597E7 ; 1.2059683126656718E9 ; 4.9642381811787134E8 ; 3.7280483429646324E10 ; 0.0
40 ; 1.473441020700987E7 ; 1.2060092635192635E9 ; 5.111276654793073E8 ; 3.8486451742312E10 ; 0.0
41 ; 1.476509818090751E7 ; 1.2060511558977919E9 ; 5.2586207568631715E8 ; 3.969246100583126E10 ; 0.0
42 ; 1.4803951542411346E7 ; 1.2060939591015742E9 ; 5.406271738672247E8 ; 4.089851216172905E10 ; 0.0
43 ; 1.4830598994767016E7 ; 1.2061376429563382E9 ; 5.55431125409636E8 ; 4.210460612083063E10 ; 0.0
44 ; 1.4853788464589555E7 ; 1.206182177849502E9 ; 5.702617244044031E8 ; 4.3310743763786964E10 ; 0.0
45 ; 1.4885724742279656E7 ; 1.2062275347606392E9 ; 5.851155128689927E8 ; 4.451692594163647E10 ; 0.0
46 ; 1.4906333003987307E7 ; 1.2062736852865403E9 ; 6.000012376112723E8 ; 4.572315347639711E10 ; 0.0
47 ; 1.4930378669818178E7 ; 1.206320601661281E9 ; 6.149075706152596E8 ; 4.692942716168365E10 ; 0.0
48 ; 1.495123778237031E7 ; 1.2063682567717042E9 ; 6.298379492850778E8 ; 4.8135747763344925E10 ; 0.0
49 ; 1.4964734823002528E7 ; 1.2064166241687155E9 ; 6.447891870674481E8 ; 4.934211602011663E10 ; 0.0
50 ; 1.4988261248324156E7 ; 1.2064656780747879E9 ; 6.597539218904507E8 ; 5.054853264428535E10 ; 0.0
51 ; 1.4996629019004166E7 ; 1.2065153933880427E9 ; 6.747421831387749E8 ; 5.175499832236014E10 ; 0.0
52 ; 1.501589278833402E7 ; 1.2065657456832721E9 ; 6.89738812157779E8 ; 5.2961513715748184E10 ; 0.0
53 ; 1.5025552156171814E7 ; 1.2066167112102358E9 ; 7.04754704946113E8 ; 5.416807946143146E10 ; 0.0
54 ; 1.5036841401942465E7 ; 1.2066682668895514E9 ; 7.197802571022848E8 ; 5.537469617264169E10 ; 0.0
55 ; 1.5049089562475953E7 ; 1.206720390306478E9 ; 7.348170985042273E8 ; 5.658136443953124E10 ; 0.0
56 ; 1.5059298423544444E7 ; 1.2067730597028646E9 ; 7.498661880667032E8 ; 5.778808482983772E10 ; 0.0
57 ; 1.5079299344335452E7 ; 1.2068262539675198E9 ; 7.649254864902476E8 ; 5.899485788954059E10 ; 0.0
58 ; 1.5089463041119661E7 ; 1.2068799526252346E9 ; 7.80004785834583E8 ; 6.020168414350811E10 ; 0.0
59 ; 1.5097309964676451E7 ; 1.2069341358246727E9 ; 7.950942488757027E8 ; 6.140856409613335E10 ; 0.0
60 ; 1.511648082833644E7 ; 1.206988784325322E9 ; 8.101915588403792E8 ; 6.261549823195802E10 ; 0.0
61 ; 1.512511149347733E7 ; 1.2070438794836774E9 ; 8.253080396687157E8 ; 6.382248701628335E10 ; 0.0
62 ; 1.5137417651267007E7 ; 1.207099403238822E9 ; 8.404331511621931E8 ; 6.502953089576703E10 ; 0.0
63 ; 1.5147047276693389E7 ; 1.2071553380975387E9 ; 8.555705688134601E8 ; 6.623663029900585E10 ; 0.0
64 ; 1.515967477179337E7 ; 1.20721166711908E9 ; 8.707176160901535E8 ; 6.744378563710339E10 ; 0.0
65 ; 1.516820967035453E7 ; 1.2072683738997123E9 ; 8.858772908619468E8 ; 6.865099730422247E10 ; 0.0
66 ; 1.5174790955634596E7 ; 1.207325442557126E9 ; 9.010455005323013E8 ; 6.98582656781222E10 ; 0.0
67 ; 1.5193207680245437E7 ; 1.2073828577148042E9 ; 9.162202914879359E8 ; 7.106559112067932E10 ; 0.0
68 ; 1.5207452324236447E7 ; 1.2074406044864202E9 ; 9.314134991681813E8 ; 7.227297397839412E10 ; 0.0
69 ; 1.5215655084078982E7 ; 1.207498668460331E9 ; 9.466209514924177E8 ; 7.348041458288054E10 ; 0.0
70 ; 1.5218192156297836E7 ; 1.207557035684225E9 ; 9.618366065764967E8 ; 7.468791325134087E10 ; 0.0
71 ; 1.5222479090003977E7 ; 1.207615692649967E9 ; 9.770547987327945E8 ; 7.589547028702509E10 ; 0.0
72 ; 1.5237153744416974E7 ; 1.2076746262786868E9 ; 9.922772778227985E8 ; 7.710308597967505E10 ; 0.0
73 ; 1.5242157514585394E7 ; 1.2077338239061399E9 ; 1.0075144315672154E9 ; 7.831076060595374E10 ; 0.0
74 ; 1.524487842804997E7 ; 1.2077932732683723E9 ; 1.0227565890818008E9 ; 7.951849442985988E10 ; 0.0
75 ; 1.5259240597528E7 ; 1.207852962487711E9 ; 1.0380014675098507E9 ; 8.072628770312825E10 ; 0.0
76 ; 1.5261022995633217E7 ; 1.207912880059094E9 ; 1.0532607081073787E9 ; 8.193414066561597E10 ; 0.0
77 ; 1.5270258196828894E7 ; 1.207973014836763E9 ; 1.068521731103012E9 ; 8.314205354567506E10 ; 0.0
78 ; 1.5263227091793686E7 ; 1.2080333560213184E9 ; 1.083791989299841E9 ; 8.435002656051183E10 ; 0.0
79 ; 1.525484568669124E7 ; 1.2080938931471522E9 ; 1.0990552163916347E9 ; 8.555805991653314E10 ; 0.0
80 ; 1.5253098107569525E7 ; 1.2081546160702555E9 ; 1.114310062078326E9 ; 8.67661538096803E10 ; 0.0
81 ; 1.5248013098900221E7 ; 1.2082155149564102E9 ; 1.1295631601858954E9 ; 8.797430842575055E10 ; 0.0
82 ; 1.5235202477151323E7 ; 1.2082765802697597E9 ; 1.1448111732847958E9 ; 8.918252394070695E10 ; 0.0
83 ; 1.5230917805075504E7 ; 1.208337802761755E9 ; 1.1600463757619472E9 ; 9.039080052097672E10 ; 0.0
84 ; 1.5221118451211259E7 ; 1.208399173460479E9 ; 1.1752772935670226E9 ; 9.159913832373846E10 ; 0.0
85 ; 1.5217331724248666E7 ; 1.2084606836603382E9 ; 1.1904984120182338E9 ; 9.280753749719894E10 ; 0.0
86 ; 1.520538113019502E7 ; 1.2085223249121172E9 ; 1.2057157437424824E9 ; 9.401599818085928E10 ; 0.0
87 ; 1.5193887102973603E7 ; 1.2085840890133927E9 ; 1.2209211248726773E9 ; 9.522452050577141E10 ; 0.0
88 ; 1.518357493522107E7 ; 1.2086459679992936E9 ; 1.236115011975651E9 ; 9.64331045947848E10 ; 0.0
89 ; 1.5177115321781978E7 ; 1.2087079541336029E9 ; 1.251298586910872E9 ; 9.76417505627841E10 ; 0.0
90 ; 1.5167797733611617E7 ; 1.2087700399001944E9 ; 1.2664757022326539E9 ; 9.885045851691771E10 ; 0.0
91 ; 1.5153411944001283E7 ; 1.2088322179947882E9 ; 1.2816434999662654E9 ; 1.000592285568179E11 ; 0.0
92 ; 1.514342711850155E7 ; 1.2088944813170235E9 ; 1.2967969119102666E9 ; 1.0126806077481268E11 ; 0.0
93 ; 1.513150371064527E7 ; 1.208956822962835E9 ; 1.3119403390287683E9 ; 1.024769552561297E11 ; 0.0
94 ; 1.5122426875550635E7 ; 1.2090192362171237E9 ; 1.3270718427394135E9 ; 1.0368591207909253E11 ; 0.0
95 ; 1.5113638132875517E7 ; 1.209081714546715E9 ; 1.3421942696149642E9 ; 1.0489493131530965E11 ; 0.0
96 ; 1.5103316283006474E7 ; 1.2091442515935898E9 ; 1.3573079077478397E9 ; 1.0610401302985637E11 ; 0.0
97 ; 1.5084397805493139E7 ; 1.209206841168385E9 ; 1.372411224030846E9 ; 1.0731315728144995E11 ; 0.0
98 ; 1.5079002641548008E7 ; 1.2092694772441504E9 ; 1.3874956218363392E9 ; 1.0852236412261833E11 ; 0.0
99 ; 1.5062304726724567E7 ; 1.2093321539503522E9 ; 1.4025746244778872E9 ; 1.0973163359986249E11 ; 0.0
100 ; 1.505547563335073E7 ; 1.2093948655671155E9 ; 1.4176369292046118E9 ; 1.1094096575381284E11 ; 0.0
101 ; 1.5037628371547256E7 ; 1.2094576065196996E9 ; 1.4326924048379626E9 ; 1.1215036061937994E11 ; 0.0
102 ; 1.502146889938596E7 ; 1.2095203713731894E9 ; 1.4477300332095098E9 ; 1.1335981822589964E11 ; 0.0
103 ; 1.5004538767837396E7 ; 1.209583154827405E9 ; 1.4627515021088958E9 ; 1.1456933859727283E11 ; 0.0
104 ; 1.4995826963802844E7 ; 1.2096459517120123E9 ; 1.477756040876733E9 ; 1.1577892175210023E11 ; 0.0
105 ; 1.4977807548165932E7 ; 1.2097087569818306E9 ; 1.4927518678405359E9 ; 1.1698856770381224E11 ; 0.0
106 ; 1.4961117531977506E7 ; 1.2097715657123303E9 ; 1.507729675388702E9 ; 1.1819827646079407E11 ; 0.0
107 ; 1.4957190167182665E7 ; 1.2098343730953102E9 ; 1.5226907929206793E9 ; 1.194080480265064E11 ; 0.0
108 ; 1.493511966033275E7 ; 1.2098971744347508E9 ; 1.537647983087862E9 ; 1.206178823996017E11 ; 0.0
109 ; 1.4915587959286515E7 ; 1.209959965142832E9 ; 1.5525831027481947E9 ; 1.2182777957403645E11 ; 0.0
110 ; 1.490531361838859E7 ; 1.2100227407361128E9 ; 1.5674986907074811E9 ; 1.2303773953917929E11 ; 0.0
111 ; 1.487856829304949E7 ; 1.2100854968318646E9 ; 1.5824040043258698E9 ; 1.242477622799154E11 ; 0.0
112 ; 1.4870702925165793E7 ; 1.2101482291445496E9 ; 1.5972825726189194E9 ; 1.2545784777674727E11 ; 0.0
113 ; 1.4850353075745195E7 ; 1.2102109334824448E9 ; 1.6121532755440853E9 ; 1.2666799600589182E11 ; 0.0
114 ; 1.483877734684244E7 ; 1.2102736057443953E9 ; 1.6270036286198304E9 ; 1.2787820693937427E11 ; 0.0
115 ; 1.480892368138145E7 ; 1.2103362419167037E9 ; 1.641842405966673E9 ; 1.2908848054511867E11 ; 0.0
116 ; 1.4789700187637167E7 ; 1.2103988380701394E9 ; 1.6566513296480544E9 ; 1.3029881678703537E11 ; 0.0
117 ; 1.4780862905499505E7 ; 1.2104613903570693E9 ; 1.6714410298356915E9 ; 1.3150921562510551E11 ; 0.0
118 ; 1.4751721325816726E7 ; 1.210523895008701E9 ; 1.686221892741191E9 ; 1.3271967701546259E11 ; 0.0
119 ; 1.4742376737004777E7 ; 1.2105863483324387E9 ; 1.7009736140670075E9 ; 1.3393020091047128E11 ; 0.0
120 ; 1.4719503812434237E7 ; 1.2106487467093396E9 ; 1.7157159908040123E9 ; 1.3514078725880373E11 ; 0.0
121 ; 1.469552605381008E7 ; 1.210711086591674E9 ; 1.7304354946164465E9 ; 1.3635143600551306E11 ; 0.0
122 ; 1.4679519859006222E7 ; 1.2107733645005817E9 ; 1.7451310206702566E9 ; 1.3756214709210474E11 ; 0.0
123 ; 1.4652702290324371E7 ; 1.2108355770238183E9 ; 1.7598105405292628E9 ; 1.3877292045660532E11 ; 0.0
124 ; 1.4640551414662767E7 ; 1.2108977208135922E9 ; 1.7744632428195872E9 ; 1.3998375603362912E11 ; 0.0
125 ; 1.4616978733938022E7 ; 1.2109597925844853E9 ; 1.78910379423425E9 ; 1.4119465375444272E11 ; 0.0
126 ; 1.4596063759242319E7 ; 1.211021789111455E9 ; 1.803720772968188E9 ; 1.424056135470272E11 ; 0.0
127 ; 1.4569167438523237E7 ; 1.2110837072279148E9 ; 1.8183168367274303E9 ; 1.4361663533613864E11 ; 0.0
128 ; 1.4551522367798477E7 ; 1.2111455438238876E9 ; 1.8328860041659536E9 ; 1.4482771904336655E11 ; 0.0
129 ; 1.4528512397674141E7 ; 1.2112072958442326E9 ; 1.8474375265337522E9 ; 1.4603886458719043E11 ; 0.0
130 ; 1.4503730879014911E7 ; 1.2112689602869387E9 ; 1.8619660389314263E9 ; 1.4725007188303467E11 ; 0.0
131 ; 1.4461630942664528E7 ; 1.2113305342014863E9 ; 1.8764697698104413E9 ; 1.484613408433216E11 ; 0.0
132 ; 1.4427445269893091E7 ; 1.2113920146872678E9 ; 1.8909314007531059E9 ; 1.4967267137752307E11 ; 0.0
133 ; 1.4392024321544062E7 ; 1.2114533988920732E9 ; 1.905358846022999E9 ; 1.5088406339221033E11 ; 0.0
134 ; 1.435820222949594E7 ; 1.2115146840106294E9 ; 1.9197508703445432E9 ; 1.520955167911024E11 ; 0.0
135 ; 1.4318107716374164E7 ; 1.2115758672831976E9 ; 1.9341090725740392E9 ; 1.53307031475113E11 ; 0.0
136 ; 1.4284153099198453E7 ; 1.211636945994223E9 ; 1.9484271802904134E9 ; 1.545186073423962E11 ; 0.0
137 ; 1.424695526876308E7 ; 1.2116979174710355E9 ; 1.9627113333896117E9 ; 1.5573024428839044E11 ; 0.0
138 ; 1.4204501296984501E7 ; 1.2117587790825987E9 ; 1.9769582886583748E9 ; 1.5694194220586148E11 ; 0.0
139 ; 1.4167843756187612E7 ; 1.2118195282383068E9 ; 1.9911627899553592E9 ; 1.581537009849441E11 ; 0.0
140 ; 1.4129766823102016E7 ; 1.211880162386826E9 ; 2.005330633711547E9 ; 1.593655205131824E11 ; 0.0
141 ; 1.4080426710578367E7 ; 1.2119406790149794E9 ; 2.019460400534649E9 ; 1.6057740067556924E11 ; 0.0
142 ; 1.4047093981492007E7 ; 1.2120010756466727E9 ; 2.0335408272452273E9 ; 1.6178934135458423E11 ; 0.0
143 ; 1.4009687261461833E7 ; 1.2120613498418603E9 ; 2.0475879212267194E9 ; 1.630013424302309E11 ; 0.0
144 ; 1.397481930078581E7 ; 1.2121214991955485E9 ; 2.061597608488181E9 ; 1.6421340378007275E11 ; 0.0
145 ; 1.3947996268910624E7 ; 1.2121815213368368E9 ; 2.075572427788967E9 ; 1.654255252792683E11 ; 0.0
146 ; 1.3927480432865113E7 ; 1.2122414139279935E9 ; 2.0895204240578775E9 ; 1.6663770680060513E11 ; 0.0
147 ; 1.3900801766841482E7 ; 1.2123011746635654E9 ; 2.1034479044907427E9 ; 1.678499482145331E11 ; 0.0
148 ; 1.3878469215871105E7 ; 1.2123608012695186E9 ; 2.117348706257584E9 ; 1.690622493891967E11 ; 0.0
149 ; 1.3854652097060498E7 ; 1.2124202915024123E9 ; 2.1312271754734552E9 ; 1.7027461019046622E11 ; 0.0
150 ; 1.382870231744987E7 ; 1.2124796431486025E9 ; 2.1450818275705156E9 ; 1.7148703048196863E11 ; 0.0
151 ; 1.3806900647257557E7 ; 1.2125388540234709E9 ; 2.1589105298879657E9 ; 1.7269951012511722E11 ; 0.0
152 ; 1.3789831614799894E7 ; 1.2125979219706872E9 ; 2.172717430535223E9 ; 1.739120489791407E11 ; 0.0
153 ; 1.3763532836561149E7 ; 1.212656844861493E9 ; 2.186507262150023E9 ; 1.7512464690111136E11 ; 0.0
154 ; 1.3739651388915524E7 ; 1.212715620594013E9 ; 2.200270794986584E9 ; 1.7633730374597284E11 ; 0.0
155 ; 1.3711769424410503E7 ; 1.2127742470925913E9 ; 2.2140104463754997E9 ; 1.7755001936656686E11 ; 0.0
156 ; 1.3697729781294007E7 ; 1.2128327223071494E9 ; 2.22772221579991E9 ; 1.7876279361365945E11 ; 0.0
157 ; 1.3668183944173202E7 ; 1.21289104421257E9 ; 2.241419945581204E9 ; 1.799756263359666E11 ; 0.0
158 ; 1.3639641611875614E7 ; 1.212949210808098E9 ; 2.2550881295253773E9 ; 1.8118851738017917E11 ; 0.0
159 ; 1.3616078120157082E7 ; 1.213007220116768E9 ; 2.268727771137253E9 ; 1.8240146659098727E11 ; 0.0
160 ; 1.3595521205585416E7 ; 1.2130650701848443E9 ; 2.28234384925741E9 ; 1.8361447381110403E11 ; 0.0
161 ; 1.356468245878436E7 ; 1.2131227590812907E9 ; 2.2959393704629955E9 ; 1.8482753888128888E11 ; 0.0
162 ; 1.3546161633417657E7 ; 1.2131802848972478E9 ; 2.30950405292178E9 ; 1.8604066164037018E11 ; 0.0
163 ; 1.3521792762214556E7 ; 1.2132376457455373E9 ; 2.3230502145551977E9 ; 1.8725384192526743E11 ; 0.0
164 ; 1.3492992043017985E7 ; 1.2132948397601771E9 ; 2.3365720073174124E9 ; 1.8846707957101297E11 ; 0.0
165 ; 1.346817976396815E7 ; 1.2133518650959163E9 ; 2.3500649993604302E9 ; 1.8968037441077313E11 ; 0.0
166 ; 1.345130466810114E7 ; 1.213408719927787E9 ; 2.363533179124398E9 ; 1.9089372627586905E11 ; 0.0
167 ; 1.3423882107802164E7 ; 1.2134654024506674E9 ; 2.3769844837924995E9 ; 1.9210713499579684E11 ; 0.0
168 ; 1.3398702043492803E7 ; 1.2135219108788648E9 ; 2.390408365900302E9 ; 1.933206003982475E11 ; 0.0
169 ; 1.337223772202082E7 ; 1.213578243445708E9 ; 2.4038070679437947E9 ; 1.9453412230912637E11 ; 0.0
170 ; 1.3354762099063471E7 ; 1.2136343984031584E9 ; 2.4171793056658154E9 ; 1.9574770055257208E11 ; 0.0
171 ; 1.3324215514521983E7 ; 1.2136903740214283E9 ; 2.4305340677648787E9 ; 1.9696133495097525E11 ; 0.0
172 ; 1.3297016595646111E7 ; 1.2137461685886188E9 ; 2.443858283279401E9 ; 1.9817502532499667E11 ; 0.0
173 ; 1.3273335227416668E7 ; 1.2138017804103642E9 ; 2.4571552998750467E9 ; 1.993887714935853E11 ; 0.0
174 ; 1.3259054307688922E7 ; 1.213857207809491E9 ; 2.4704286351024632E9 ; 2.0060257327399567E11 ; 0.0
175 ; 1.3246271024945602E7 ; 1.2139124491256893E9 ; 2.483687689410152E9 ; 2.0181643048180515E11 ; 0.0
176 ; 1.3218357015417133E7 ; 1.2139675027151914E9 ; 2.4969339604350977E9 ; 2.0303034293093085E11 ; 0.0
177 ; 1.3207486117108108E7 ; 1.2140223669504652E9 ; 2.510152317450515E9 ; 2.0424431043364603E11 ; 0.0
178 ; 1.3189230698466554E7 ; 1.2140770402199152E9 ; 2.523359803567623E9 ; 2.054583328005965E11 ; 0.0
179 ; 1.3162746867084024E7 ; 1.214131520927594E9 ; 2.53654903426609E9 ; 2.066724098408164E11 ; 0.0
180 ; 1.3142179124670096E7 ; 1.2141858074929242E9 ; 2.549711781133174E9 ; 2.07886541361744E11 ; 0.0
181 ; 1.3129672815541372E7 ; 1.214239898350428E9 ; 2.562853960257844E9 ; 2.091007271692369E11 ; 0.0
182 ; 1.3105523319321204E7 ; 1.2142937919494665E9 ; 2.5759836330733852E9 ; 2.1031496706758734E11 ; 0.0
183 ; 1.3092257177700702E7 ; 1.214347486753987E9 ; 2.5890891563927064E9 ; 2.115292608595368E11 ; 0.0
184 ; 1.3071359115599304E7 ; 1.21440098124228E9 ; 2.602181413570407E9 ; 2.127436083462908E11 ; 0.0
185 ; 1.3056110310621955E7 ; 1.2144542739067416E9 ; 2.615252772686006E9 ; 2.1395800932753308E11 ; 0.0
186 ; 1.3042898430890353E7 ; 1.2145073632536469E9 ; 2.628308882996628E9 ; 2.1517246360143982E11 ; 0.0
187 ; 1.3012327466693738E7 ; 1.2145602478029268E9 ; 2.6413517814275184E9 ; 2.1638697096469348E11 ; 0.0
188 ; 1.2996290216895431E7 ; 1.2146129260879555E9 ; 2.6543641088942122E9 ; 2.176015312124964E11 ; 0.0
189 ; 1.2980222481985776E7 ; 1.214665396655343E9 ; 2.667360399111108E9 ; 2.1881614413858435E11 ; 0.0
190 ; 1.2957627131236661E7 ; 1.2147176580647354E9 ; 2.6803406215930934E9 ; 2.200308095352397E11 ; 0.0
191 ; 1.2944803658981347E7 ; 1.2147697088886194E9 ; 2.69329824872433E9 ; 2.212455271933044E11 ; 0.0
192 ; 1.292407175578374E7 ; 1.214821547712136E9 ; 2.7062430523833113E9 ; 2.2246029690219302E11 ; 0.0
193 ; 1.2904984615630329E7 ; 1.214873173132899E9 ; 2.719167124139095E9 ; 2.2367511844990515E11 ; 0.0
194 ; 1.2889567190827852E7 ; 1.2149245837608175E9 ; 2.732072108754725E9 ; 2.2488999162303806E11 ; 0.0
195 ; 1.2871821878985785E7 ; 1.214975778217927E9 ; 2.744961675945553E9 ; 2.2610491620679886E11 ; 0.0
