CSV File for the Network on Day 245
1 - Minute m 
2 - Power Consumed at minute m 
3 - Power Produced at minute m 
4 - Energy Consumed since the beginning of the day 
5 - Energy Produced since the beginning of the day 
6 - Energy Lost since the beginning of the day 
 
0 ; 6882113.414187925 ; 6.3277751715041E8 ; 0.0 ; 0.0 ; 0.0
1 ; 6913115.447845118 ; 6.336811035675628E8 ; 6882113.414187925 ; 6.3277751715041E8 ; 0.0
2 ; 6960575.736042182 ; 6.364386493158487E8 ; 1.3795228862033043E7 ; 1.2664586207179728E9 ; 0.0
3 ; 7007625.919663919 ; 6.41050229105419E8 ; 2.0755804598075226E7 ; 1.9028972700338216E9 ; 0.0
4 ; 7064305.371170336 ; 6.475159125150286E8 ; 2.7763430517739147E7 ; 2.5439474991392407E9 ; 0.0
5 ; 7134298.521495277 ; 6.558357628265954E8 ; 3.482773588890948E7 ; 3.191463411654269E9 ; 0.0
6 ; 7223419.9280227525 ; 6.660098358893534E8 ; 4.196203441040476E7 ; 3.8472991744808645E9 ; 0.0
7 ; 7354664.064213561 ; 6.780381790563666E8 ; 4.918545433842751E7 ; 4.513309010370218E9 ; 0.0
8 ; 7533498.374785367 ; 6.91920830237357E8 ; 5.6540118402641065E7 ; 5.191347189426585E9 ; 0.0
9 ; 7819579.302955102 ; 7.076578171099968E8 ; 6.407361677742644E7 ; 5.883268019663942E9 ; 0.0
10 ; 8252921.544093193 ; 7.252491565268395E8 ; 7.189319608038154E7 ; 6.590925836773939E9 ; 0.0
11 ; 8940946.31999679 ; 7.446948541470339E8 ; 8.014611762447473E7 ; 7.316174993300778E9 ; 0.0
12 ; 1.0050341905940432E7 ; 7.659949043114312E8 ; 8.908706394447152E7 ; 8.060869847447812E9 ; 0.0
13 ; 1.1116835890903493E7 ; 7.891492901674776E8 ; 9.913740585041195E7 ; 8.826864751759243E9 ; 0.0
14 ; 1.1243943773282126E7 ; 8.141579840375016E8 ; 1.1025424174131544E8 ; 9.61601404192672E9 ; 0.0
15 ; 1.1292871049865052E7 ; 8.410209480117805E8 ; 1.2149818551459756E8 ; 1.0430172025964222E10 ; 0.0
16 ; 1.1342265369418874E7 ; 8.697381347372508E8 ; 1.3279105656446262E8 ; 1.1271192973976002E10 ; 0.0
17 ; 1.1391074559528498E7 ; 9.003094883646783E8 ; 1.441333219338815E8 ; 1.2140931108713253E10 ; 0.0
18 ; 1.1447635674177319E7 ; 9.32734945612145E8 ; 1.5552439649341E8 ; 1.304124059707793E10 ; 0.0
19 ; 1.1495609624414664E7 ; 9.670144369008961E8 ; 1.669720321675873E8 ; 1.3973975542690075E10 ; 0.0
20 ; 1.1551581671825843E7 ; 1.0031478875207802E9 ; 1.7846764179200196E8 ; 1.4940989979590971E10 ; 0.0
21 ; 1.1602027291450422E7 ; 1.0411352187861853E9 ; 1.9001922346382782E8 ; 1.5944137867111752E10 ; 0.0
22 ; 1.1656210401003737E7 ; 1.080976349148875E9 ; 2.0162125075527823E8 ; 1.6985273085897938E10 ; 0.0
23 ; 1.170881819339142E7 ; 1.122671195240749E9 ; 2.1327746115628198E8 ; 1.8066249435046814E10 ; 0.0
24 ; 1.175805796136164E7 ; 1.1662196728265696E9 ; 2.249862793496734E8 ; 1.9188920630287563E10 ; 0.0
25 ; 1.1808460505869007E7 ; 1.2037499430426688E9 ; 2.3674433731103504E8 ; 2.0355140303114132E10 ; 0.0
26 ; 1.18628289095404E7 ; 1.2037832093579595E9 ; 2.4855279781690404E8 ; 2.15588902461568E10 ; 0.0
27 ; 1.1908686554416964E7 ; 1.2038180053515258E9 ; 2.6041562672644442E8 ; 2.276267345551476E10 ; 0.0
28 ; 1.196061667938916E7 ; 1.2038542507127662E9 ; 2.723243132808614E8 ; 2.3966491460866283E10 ; 0.0
29 ; 1.2018040349168677E7 ; 1.2038918674177628E9 ; 2.8428492996025056E8 ; 2.517034571157905E10 ; 0.0
30 ; 1.2063155158103272E7 ; 1.2039307800518517E9 ; 2.963029703094192E8 ; 2.637423757899681E10 ; 0.0
31 ; 1.2117614157862402E7 ; 1.2039709160475113E9 ; 3.083661254675225E8 ; 2.7578168359048664E10 ; 0.0
32 ; 1.2158280487864284E7 ; 1.204012205847844E9 ; 3.204837396253849E8 ; 2.8782139275096176E10 ; 0.0
33 ; 1.2210741982864732E7 ; 1.2040545830059795E9 ; 3.326420201132492E8 ; 2.998615148094402E10 ; 0.0
34 ; 1.2256143633148227E7 ; 1.2040979842303724E9 ; 3.448527620961139E8 ; 3.1190206063949997E10 ; 0.0
35 ; 1.230206761013784E7 ; 1.2041423493852944E9 ; 3.571089057292622E8 ; 3.239430404818037E10 ; 0.0
36 ; 1.2351446544894641E7 ; 1.2041876214549978E9 ; 3.694109733394E8 ; 3.3598446397565666E10 ; 0.0
37 ; 1.2382911401272643E7 ; 1.2042337464790971E9 ; 3.817624198842946E8 ; 3.480263401902066E10 ; 0.0
38 ; 1.2423852007302433E7 ; 1.2042806734657574E9 ; 3.941453312855673E8 ; 3.6006867765499756E10 ; 0.0
39 ; 1.2472817903045978E7 ; 1.2043283542883513E9 ; 4.065691832928697E8 ; 3.7211148438965515E10 ; 0.0
40 ; 1.2506046848147279E7 ; 1.2043767435703769E9 ; 4.1904200119591564E8 ; 3.841547679325387E10 ; 0.0
41 ; 1.2539018855932841E7 ; 1.204425798562615E9 ; 4.315480480440629E8 ; 3.961985353682424E10 ; 0.0
42 ; 1.2574954305010457E7 ; 1.2044754790158024E9 ; 4.4408706689999574E8 ; 4.0824279335386856E10 ; 0.0
43 ; 1.2606452571268363E7 ; 1.2045257470514612E9 ; 4.566620212050062E8 ; 4.202875481440266E10 ; 0.0
44 ; 1.264020742452164E7 ; 1.2045765670329776E9 ; 4.6926847377627456E8 ; 4.323328056145412E10 ; 0.0
45 ; 1.2669378666862693E7 ; 1.204627905438569E9 ; 4.819086812007962E8 ; 4.443785712848709E10 ; 0.0
46 ; 1.2694158665010808E7 ; 1.2046797307373803E9 ; 4.9457805986765885E8 ; 4.564248503392566E10 ; 0.0
47 ; 1.2713504648380218E7 ; 1.2047320132696285E9 ; 5.0727221853266966E8 ; 4.684716476466304E10 ; 0.0
48 ; 1.2746458894698502E7 ; 1.2047847251314526E9 ; 5.199857231810499E8 ; 4.805189677793267E10 ; 0.0
49 ; 1.2766962124160564E7 ; 1.2048378400648997E9 ; 5.327321820757484E8 ; 4.9256681503064125E10 ; 0.0
50 ; 1.2783169014510727E7 ; 1.2048913333533142E9 ; 5.45499144199909E8 ; 5.046151934312903E10 ; 0.0
51 ; 1.2810258832851978E7 ; 1.2049451817222524E9 ; 5.582823132144197E8 ; 5.1666410676482346E10 ; 0.0
52 ; 1.282214353353576E7 ; 1.204999363245941E9 ; 5.710925720472717E8 ; 5.28713558582046E10 ; 0.0
53 ; 1.2840232991486613E7 ; 1.2050538572592149E9 ; 5.839147155808074E8 ; 5.407635522145054E10 ; 0.0
54 ; 1.2852747220245909E7 ; 1.2051086442748008E9 ; 5.967549485722941E8 ; 5.5281409078709755E10 ; 0.0
55 ; 1.287379674254052E7 ; 1.2051637059057846E9 ; 6.096076957925401E8 ; 5.648651772298456E10 ; 0.0
56 ; 1.2892831272078529E7 ; 1.205219024793044E9 ; 6.224814925350806E8 ; 5.769168142889034E10 ; 0.0
57 ; 1.2907542120163511E7 ; 1.2052745845374317E9 ; 6.353743238071591E8 ; 5.889690045368339E10 ; 0.0
58 ; 1.2925770685652057E7 ; 1.205330369636463E9 ; 6.482818659273226E8 ; 6.010217503822082E10 ; 0.0
59 ; 1.2934601522377621E7 ; 1.2053863654252665E9 ; 6.612076366129746E8 ; 6.130750540785728E10 ; 0.0
60 ; 1.2958673368777176E7 ; 1.2054425580215492E9 ; 6.741422381353523E8 ; 6.251289177328255E10 ; 0.0
61 ; 1.2968813140148781E7 ; 1.2054989342743368E9 ; 6.871009115041294E8 ; 6.371833433130409E10 ; 0.0
62 ; 1.2988905530701397E7 ; 1.205555481716248E9 ; 7.000697246442782E8 ; 6.492383326557843E10 ; 0.0
63 ; 1.2995697281979714E7 ; 1.2056121885190766E9 ; 7.130586301749796E8 ; 6.612938874729468E10 ; 0.0
64 ; 1.3020992614484863E7 ; 1.2056690434524612E9 ; 7.260543274569592E8 ; 6.733500093581375E10 ; 0.0
65 ; 1.302794155336935E7 ; 1.2057260358454328E9 ; 7.390753200714442E8 ; 6.854066997926621E10 ; 0.0
66 ; 1.3042633744548915E7 ; 1.2057831555506423E9 ; 7.521032616248136E8 ; 6.974639601511165E10 ; 0.0
67 ; 1.3054284097419165E7 ; 1.2058403929110818E9 ; 7.651458953693625E8 ; 7.09521791706623E10 ; 0.0
68 ; 1.3068669741766382E7 ; 1.2058977387291195E9 ; 7.782001794667816E8 ; 7.215801956357338E10 ; 0.0
69 ; 1.30804648485323E7 ; 1.2059551842376897E9 ; 7.91268849208548E8 ; 7.33639173023025E10 ; 0.0
70 ; 1.309667281600894E7 ; 1.2060127210734792E9 ; 8.043493140570803E8 ; 7.456987248654019E10 ; 0.0
71 ; 1.3109410147714995E7 ; 1.2060703412519658E9 ; 8.174459868730892E8 ; 7.577588520761368E10 ; 0.0
72 ; 1.3118343974484868E7 ; 1.2061280371441777E9 ; 8.305553970208042E8 ; 7.698195554886565E10 ; 0.0
73 ; 1.3130448874877859E7 ; 1.2061858014550483E9 ; 8.436737409952891E8 ; 7.818808358600983E10 ; 0.0
74 ; 1.3140719658963243E7 ; 1.2062436272032475E9 ; 8.568041898701669E8 ; 7.939426938746487E10 ; 0.0
75 ; 1.3153759197404413E7 ; 1.2063015077023857E9 ; 8.699449095291301E8 ; 8.060051301466812E10 ; 0.0
76 ; 1.3172324108949818E7 ; 1.2063594365434902E9 ; 8.830986687265345E8 ; 8.180681452237051E10 ; 0.0
77 ; 1.3178588405771503E7 ; 1.2064174075786593E9 ; 8.962709928354843E8 ; 8.3013173958914E10 ; 0.0
78 ; 1.317111272113492E7 ; 1.2064754149058127E9 ; 9.094495812412558E8 ; 8.421959136649266E10 ; 0.0
79 ; 1.3168135564086571E7 ; 1.2065334528544538E9 ; 9.226206939623907E8 ; 8.542606678139847E10 ; 0.0
80 ; 1.3170651301064398E7 ; 1.2065915159723759E9 ; 9.357888295264772E8 ; 8.663260023425291E10 ; 0.0
81 ; 1.316290055126325E7 ; 1.2066495990132415E9 ; 9.489594808275416E8 ; 8.78391917502253E10 ; 0.0
82 ; 1.3163723758782655E7 ; 1.206707696924973E9 ; 9.621223813788048E8 ; 8.904584134923854E10 ; 0.0
83 ; 1.3153759379820386E7 ; 1.2067658048388968E9 ; 9.752861051375874E8 ; 9.025254904616351E10 ; 0.0
84 ; 1.3148702605604533E7 ; 1.2068239180595865E9 ; 9.884398645174078E8 ; 9.145931485100241E10 ; 0.0
85 ; 1.3148551860306898E7 ; 1.2068820320553586E9 ; 1.0015885671230123E9 ; 9.2666138769062E10 ; 0.0
86 ; 1.3139260401871407E7 ; 1.2069401424493701E9 ; 1.0147371189833192E9 ; 9.387302080111736E10 ; 0.0
87 ; 1.3145069177310605E7 ; 1.2069982450112808E9 ; 1.0278763793851906E9 ; 9.507996094356673E10 ; 0.0
88 ; 1.3132060240332365E7 ; 1.2070563356494355E9 ; 1.0410214485625012E9 ; 9.6286959188578E10 ; 0.0
89 ; 1.3131621725684224E7 ; 1.207114410403538E9 ; 1.0541535088028336E9 ; 9.749401552422743E10 ; 0.0
90 ; 1.3118444342553362E7 ; 1.2071724654377716E9 ; 1.0672851305285177E9 ; 9.870112993463097E10 ; 0.0
91 ; 1.3117541617316727E7 ; 1.207230497034349E9 ; 1.080403574871071E9 ; 9.990830240006874E10 ; 0.0
92 ; 1.3101623536366733E7 ; 1.2072885015874488E9 ; 1.0935211164883878E9 ; 1.0111553289710309E11 ; 0.0
93 ; 1.3099353008856416E7 ; 1.2073464755975254E9 ; 1.1066227400247545E9 ; 1.0232282139869054E11 ; 0.0
94 ; 1.3090977755784363E7 ; 1.2074044156659546E9 ; 1.1197220930336108E9 ; 1.0353016787428806E11 ; 0.0
95 ; 1.3084804530697757E7 ; 1.2074623184900033E9 ; 1.132813070789395E9 ; 1.0473757228995401E11 ; 0.0
96 ; 1.30815925921351E7 ; 1.2075201808580952E9 ; 1.145897875320093E9 ; 1.0594503460844402E11 ; 0.0
97 ; 1.3062798692667143E7 ; 1.207577999645354E9 ; 1.158979467912228E9 ; 1.0715255478930211E11 ; 0.0
98 ; 1.305864639358556E7 ; 1.207635771809409E9 ; 1.1720422666048954E9 ; 1.0836013278894746E11 ; 0.0
99 ; 1.3054447353213381E7 ; 1.2076934943864412E9 ; 1.1851009129984808E9 ; 1.0956776856075687E11 ; 0.0
100 ; 1.3037888763643438E7 ; 1.2077511644874592E9 ; 1.198155360351694E9 ; 1.1077546205514331E11 ; 0.0
101 ; 1.303176281247259E7 ; 1.207808779294786E9 ; 1.2111932491153376E9 ; 1.1198321321963077E11 ; 0.0
102 ; 1.3020239690196967E7 ; 1.2078663360587454E9 ; 1.2242250119278102E9 ; 1.1319102199892555E11 ; 0.0
103 ; 1.3012246510683704E7 ; 1.2079238320945354E9 ; 1.2372452516180072E9 ; 1.143988883349843E11 ; 0.0
104 ; 1.299784630061983E7 ; 1.2079812647792766E9 ; 1.250257498128691E9 ; 1.1560681216707883E11 ; 0.0
105 ; 1.2983707916359376E7 ; 1.208038631549223E9 ; 1.2632553444293108E9 ; 1.1681479343185811E11 ; 0.0
106 ; 1.2974496605797645E7 ; 1.2080959298971279E9 ; 1.2762390523456702E9 ; 1.1802283206340733E11 ; 0.0
107 ; 1.2967516208333556E7 ; 1.208153157369752E9 ; 1.2892135489514678E9 ; 1.1923092799330446E11 ; 0.0
108 ; 1.295343096502099E7 ; 1.2082103115655105E9 ; 1.3021810651598012E9 ; 1.2043908115067421E11 ; 0.0
109 ; 1.2944763598381E7 ; 1.2082673901322427E9 ; 1.3151344961248221E9 ; 1.2164729146223972E11 ; 0.0
110 ; 1.2928169671524335E7 ; 1.208324390765104E9 ; 1.3280792597232032E9 ; 1.2285555885237196E11 ; 0.0
111 ; 1.292186138742676E7 ; 1.2083813112045684E9 ; 1.3410074293947275E9 ; 1.2406388324313707E11 ; 0.0
112 ; 1.2907237488716166E7 ; 1.2084381492345383E9 ; 1.3539292907821543E9 ; 1.2527226455434164E11 ; 0.0
113 ; 1.2892411485922694E7 ; 1.2084949026805515E9 ; 1.3668365282708704E9 ; 1.2648070270357619E11 ; 0.0
114 ; 1.2879717497141147E7 ; 1.2085515694080827E9 ; 1.379728939756793E9 ; 1.2768919760625674E11 ; 0.0
115 ; 1.2867443494464407E7 ; 1.2086081473209338E9 ; 1.3926086572539341E9 ; 1.2889774917566483E11 ; 0.0
116 ; 1.285161080216286E7 ; 1.2086646343597038E9 ; 1.4054761007483985E9 ; 1.3010635732298576E11 ; 0.0
117 ; 1.2840296473562619E7 ; 1.2087210285003405E9 ; 1.4183277115505614E9 ; 1.3131502195734547E11 ; 0.0
118 ; 1.2822605864968743E7 ; 1.2087773277527633E9 ; 1.4311680080241241E9 ; 1.3252374298584581E11 ; 0.0
119 ; 1.2803618145633634E7 ; 1.2088335301595573E9 ; 1.443990613889093E9 ; 1.3373252031359857E11 ; 0.0
120 ; 1.2797269113531785E7 ; 1.2088896337947307E9 ; 1.4567942320347266E9 ; 1.3494135384375813E11 ; 0.0
121 ; 1.2779192969638355E7 ; 1.2089456367625341E9 ; 1.4695915011482584E9 ; 1.3615024347755286E11 ; 0.0
122 ; 1.2761586457050037E7 ; 1.2090015371963422E9 ; 1.4823706941178968E9 ; 1.3735918911431538E11 ; 0.0
123 ; 1.2743353768219559E7 ; 1.2090573332575836E9 ; 1.4951322805749469E9 ; 1.3856819065151172E11 ; 0.0
124 ; 1.2734072118956666E7 ; 1.209113023134729E9 ; 1.5078756343431664E9 ; 1.397772479847693E11 ; 0.0
125 ; 1.2710568448737958E7 ; 1.209168605042325E9 ; 1.520609706462123E9 ; 1.4098636100790402E11 ; 0.0
126 ; 1.2691955248019386E7 ; 1.2092240772200763E9 ; 1.5333202749108608E9 ; 1.4219552961294635E11 ; 0.0
127 ; 1.2675511872457126E7 ; 1.2092794379319704E9 ; 1.5460122301588802E9 ; 1.434047536901664E11 ; 0.0
128 ; 1.2660628895150013E7 ; 1.2093346854654446E9 ; 1.5586877420313373E9 ; 1.446140331280984E11 ; 0.0
129 ; 1.2640542703076992E7 ; 1.2093898181305938E9 ; 1.5713483709264872E9 ; 1.4582336781356384E11 ; 0.0
130 ; 1.2618162218138762E7 ; 1.209444834259413E9 ; 1.5839889136295643E9 ; 1.4703275763169443E11 ; 0.0
131 ; 1.2575048440176569E7 ; 1.2094997322050774E9 ; 1.596607075847703E9 ; 1.4824220246595383E11 ; 0.0
132 ; 1.2554687210227104E7 ; 1.2095545103412552E9 ; 1.6091821242878795E9 ; 1.494517021981589E11 ; 0.0
133 ; 1.2519626845062055E7 ; 1.209609167061452E9 ; 1.6217368114981065E9 ; 1.5066125670850015E11 ; 0.0
134 ; 1.2486743722748978E7 ; 1.2096637007783856E9 ; 1.6342564383431685E9 ; 1.518708658755616E11 ; 0.0
135 ; 1.2456028182924278E7 ; 1.2097181099233904E9 ; 1.6467431820659175E9 ; 1.5308052957634E11 ; 0.0
136 ; 1.242153195441619E7 ; 1.209772392945846E9 ; 1.6591992102488418E9 ; 1.542902476862634E11 ; 0.0
137 ; 1.2386417900992777E7 ; 1.2098265483126369E9 ; 1.671620742203258E9 ; 1.5550002007920923E11 ; 0.0
138 ; 1.2352860598525342E7 ; 1.2098805745076292E9 ; 1.684007160104251E9 ; 1.5670984662752185E11 ; 0.0
139 ; 1.2325287244082691E7 ; 1.2099344700311785E9 ; 1.6963600207027762E9 ; 1.5791972720202948E11 ; 0.0
140 ; 1.2289027418566886E7 ; 1.2099882333996544E9 ; 1.708685307946859E9 ; 1.5912966167206067E11 ; 0.0
141 ; 1.225549319428537E7 ; 1.2100418631449876E9 ; 1.7209743353654258E9 ; 1.6033964990546033E11 ; 0.0
142 ; 1.2218608897525672E7 ; 1.2100953578142388E9 ; 1.7332298285597112E9 ; 1.6154969176860532E11 ; 0.0
143 ; 1.2181366306108933E7 ; 1.2101487159691825E9 ; 1.745448437457237E9 ; 1.6275978712641956E11 ; 0.0
144 ; 1.2145627237217763E7 ; 1.2102019361859145E9 ; 1.757629803763346E9 ; 1.6396993584238873E11 ; 0.0
145 ; 1.2130222906939253E7 ; 1.21025501705447E9 ; 1.7697754310005636E9 ; 1.6518013777857465E11 ; 0.0
146 ; 1.2107133993996117E7 ; 1.2103079571784656E9 ; 1.781905653907503E9 ; 1.6639039279562912E11 ; 0.0
147 ; 1.2089750147889985E7 ; 1.2103607551747496E9 ; 1.794012787901499E9 ; 1.676007007528076E11 ; 0.0
148 ; 1.2069278690345788E7 ; 1.2104134096730719E9 ; 1.8061025380493891E9 ; 1.6881106150798233E11 ; 0.0
149 ; 1.2048627246438816E7 ; 1.2104659193157673E9 ; 1.818171816739735E9 ; 1.700214749176554E11 ; 0.0
150 ; 1.2033820068805005E7 ; 1.2105182827574508E9 ; 1.8302204439861736E9 ; 1.7123194083697116E11 ; 0.0
151 ; 1.2009401228656258E7 ; 1.2105704986647272E9 ; 1.8422542640549786E9 ; 1.724424591197286E11 ; 0.0
152 ; 1.1995124920950986E7 ; 1.2106225657159119E9 ; 1.854263665283635E9 ; 1.7365302961839334E11 ; 0.0
153 ; 1.198538657932182E7 ; 1.2106744826007652E9 ; 1.8662587902045858E9 ; 1.7486365218410925E11 ; 0.0
154 ; 1.1963362306737363E7 ; 1.210726248020236E9 ; 1.8782441767839077E9 ; 1.7607432666671002E11 ; 0.0
155 ; 1.1940286949491775E7 ; 1.2107778606862154E9 ; 1.890207539090645E9 ; 1.7728505291473026E11 ; 0.0
156 ; 1.1916940756170016E7 ; 1.2108293193213058E9 ; 1.9021478260401368E9 ; 1.7849583077541647E11 ; 0.0
157 ; 1.1895883044711074E7 ; 1.2108806226585913E9 ; 1.9140647667963068E9 ; 1.797066600947378E11 ; 0.0
158 ; 1.1879734532502508E7 ; 1.210931769441425E9 ; 1.925960649841018E9 ; 1.809175407173964E11 ; 0.0
159 ; 1.1861567053045202E7 ; 1.2109827584232213E9 ; 1.9378403843735204E9 ; 1.8212847248683783E11 ; 0.0
160 ; 1.184216086717181E7 ; 1.211033588367257E9 ; 1.9497019514265656E9 ; 1.8333945524526105E11 ; 0.0
161 ; 1.181858043239647E7 ; 1.211084258046483E9 ; 1.9615441122937374E9 ; 1.845504888336283E11 ; 0.0
162 ; 1.1802256542929038E7 ; 1.2111347662433388E9 ; 1.9733626927261338E9 ; 1.8576157309167477E11 ; 0.0
163 ; 1.177858448612623E7 ; 1.2111851117495801E9 ; 1.9851649492690628E9 ; 1.8697270785791812E11 ; 0.0
164 ; 1.1761331628619201E7 ; 1.2112352933661106E9 ; 1.996943533755189E9 ; 1.881838929696677E11 ; 0.0
165 ; 1.1735994604976334E7 ; 1.2112853099028192E9 ; 2.0087048653838081E9 ; 1.893951282630338E11 ; 0.0
166 ; 1.1718474672524981E7 ; 1.2113351601784282E9 ; 2.0204408599887846E9 ; 1.9060641357293665E11 ; 0.0
167 ; 1.1703576013579357E7 ; 1.211384843020342E9 ; 2.0321593346613095E9 ; 1.9181774873311508E11 ; 0.0
168 ; 1.1676739624232218E7 ; 1.211434357264507E9 ; 2.0438629106748888E9 ; 1.9302913357613544E11 ; 0.0
169 ; 1.1661816553721655E7 ; 1.2114837017552745E9 ; 2.0555396502991211E9 ; 1.9424056793339993E11 ; 0.0
170 ; 1.1641593363951383E7 ; 1.211532875345268E9 ; 2.0672014668528428E9 ; 1.954520516351552E11 ; 0.0
171 ; 1.1621292725496797E7 ; 1.2115818768952603E9 ; 2.0788430602167943E9 ; 1.966635845105005E11 ; 0.0
172 ; 1.1600387420009937E7 ; 1.2116307052740493E9 ; 2.090464352942291E9 ; 1.9787516638739575E11 ; 0.0
173 ; 1.1574362654547635E7 ; 1.2116793593583446E9 ; 2.1020647403623009E9 ; 1.990867970926698E11 ; 0.0
174 ; 1.1566114285496049E7 ; 1.2117278380326545E9 ; 2.1136391030168486E9 ; 2.0029847645202814E11 ; 0.0
175 ; 1.1554197052197542E7 ; 1.2117761401891809E9 ; 2.1252052173023446E9 ; 2.015102042900608E11 ; 0.0
176 ; 1.1530460774242396E7 ; 1.2118242647277136E9 ; 2.136759414354542E9 ; 2.0272198043024997E11 ; 0.0
177 ; 1.152029304445419E7 ; 1.2118722105555344E9 ; 2.148289875128784E9 ; 2.039338046949777E11 ; 0.0
178 ; 1.1503447068086047E7 ; 1.2119199765873218E9 ; 2.1598101681732383E9 ; 2.0514567690553323E11 ; 0.0
179 ; 1.1493397744419018E7 ; 1.2119675617450585E9 ; 2.1713136152413244E9 ; 2.0635759688212054E11 ; 0.0
180 ; 1.1475727781983644E7 ; 1.2120149649579473E9 ; 2.1828070129857435E9 ; 2.075695644438656E11 ; 0.0
181 ; 1.146230285521951E7 ; 1.2120621851623225E9 ; 2.1942827407677274E9 ; 2.0878157940882355E11 ; 0.0
182 ; 1.1444562813791314E7 ; 1.212109221301575E9 ; 2.2057450436229467E9 ; 2.0999364159398587E11 ; 0.0
183 ; 1.142576968173138E7 ; 1.2121560723260698E9 ; 2.217189606436738E9 ; 2.1120575081528745E11 ; 0.0
184 ; 1.1422848220510755E7 ; 1.212202737193075E9 ; 2.228615376118469E9 ; 2.1241790688761353E11 ; 0.0
185 ; 1.1398734486049874E7 ; 1.2122492148666897E9 ; 2.24003822433898E9 ; 2.136301096248066E11 ; 0.0
186 ; 1.138373445291245E7 ; 1.2122955043177752E9 ; 2.25143695882503E9 ; 2.148423588396733E11 ; 0.0
187 ; 1.1374139017661883E7 ; 1.2123416045238893E9 ; 2.262820693277942E9 ; 2.160546543439911E11 ; 0.0
188 ; 1.1358385979068827E7 ; 1.212387514469223E9 ; 2.274194832295604E9 ; 2.1726699594851498E11 ; 0.0
189 ; 1.1340755620764542E7 ; 1.2124332331445415E9 ; 2.285553218274673E9 ; 2.184793834629842E11 ; 0.0
190 ; 1.1335511265518747E7 ; 1.2124787595471227E9 ; 2.2968939738954377E9 ; 2.1969181669612872E11 ; 0.0
191 ; 1.1316807124599101E7 ; 1.2125240926807055E9 ; 2.3082294851609564E9 ; 2.2090429545567584E11 ; 0.0
192 ; 1.1300795136529911E7 ; 1.2125692315554323E9 ; 2.3195462922855554E9 ; 2.2211681954835654E11 ; 0.0
193 ; 1.1286417345266584E7 ; 1.2126141751878011E9 ; 2.3308470874220853E9 ; 2.2332938877991196E11 ; 0.0
194 ; 1.1274323254256617E7 ; 1.2126589226006126E9 ; 2.342133504767352E9 ; 2.2454200295509976E11 ; 0.0
195 ; 1.125532010353554E7 ; 1.2127034728229258E9 ; 2.353407828021609E9 ; 2.2575466187770038E11 ; 0.0
