CSV File for the Network on Day 222
1 - Minute m 
2 - Power Consumed at minute m 
3 - Power Produced at minute m 
4 - Energy Consumed since the beginning of the day 
5 - Energy Produced since the beginning of the day 
6 - Energy Lost since the beginning of the day 
 
0 ; 2580390.6061235797 ; 6.320782423592755E8 ; 0.0 ; 0.0 ; 0.0
1 ; 2626362.3992077895 ; 6.329704090438552E8 ; 2580390.6061235797 ; 6.320782423592755E8 ; 0.0
2 ; 2675920.979223814 ; 6.357170501892593E8 ; 5206753.005331369 ; 1.2650486514031305E9 ; 0.0
3 ; 2727353.3158134473 ; 6.403184091747177E8 ; 7882673.984555183 ; 1.9007657015923898E9 ; 0.0
4 ; 2791512.4801369635 ; 6.467747333322195E8 ; 1.061002730036863E7 ; 2.5410841107671075E9 ; 0.0
5 ; 2860043.82771582 ; 6.550862668947715E8 ; 1.3401539780505594E7 ; 3.187858844099327E9 ; 0.0
6 ; 2956350.55095575 ; 6.652532422890702E8 ; 1.6261583608221414E7 ; 3.8429451109940987E9 ; 0.0
7 ; 3090626.4098357437 ; 6.772758701646252E8 ; 1.921793415917716E7 ; 4.508198353283169E9 ; 0.0
8 ; 3282178.1402541436 ; 6.911543288825977E8 ; 2.2308560569012906E7 ; 5.185474223447794E9 ; 0.0
9 ; 3570503.7058554557 ; 7.068887544850152E8 ; 2.559073870926705E7 ; 5.876628552330392E9 ; 0.0
10 ; 4012578.0976530276 ; 7.244792323299235E8 ; 2.9161242415122505E7 ; 6.583517306815407E9 ; 0.0
11 ; 4706012.297700137 ; 7.439257915220524E8 ; 3.3173820512775533E7 ; 7.30799653914533E9 ; 0.0
12 ; 5820543.388047528 ; 7.65228402956672E8 ; 3.787983281047567E7 ; 8.051922330667383E9 ; 0.0
13 ; 6888061.465689252 ; 7.883869812757361E8 ; 4.37003761985232E7 ; 8.817150733624056E9 ; 0.0
14 ; 7018710.268783189 ; 8.134013904372184E8 ; 5.058843766421245E7 ; 9.605537714899792E9 ; 0.0
15 ; 7072825.36592972 ; 8.402714520799565E8 ; 5.760714793299564E7 ; 1.041893910533701E10 ; 0.0
16 ; 7128423.179049889 ; 8.689969555544417E8 ; 6.467997329892536E7 ; 1.1259210557416965E10 ; 0.0
17 ; 7188343.077202306 ; 8.99577668433977E8 ; 7.180839647797525E7 ; 1.2128207512971407E10 ; 0.0
18 ; 7248907.3180486625 ; 9.320133464855556E8 ; 7.899673955517755E7 ; 1.3027785181405384E10 ; 0.0
19 ; 7301631.476517888 ; 9.663037423771886E8 ; 8.624564687322621E7 ; 1.395979852789094E10 ; 0.0
20 ; 7356417.896173753 ; 1.0024486127296456E9 ; 9.35472783497441E7 ; 1.4926102270268127E10 ; 0.0
21 ; 7417733.622873802 ; 1.040447723410432E9 ; 1.0090369624591786E8 ; 1.5928550882997772E10 ; 0.0
22 ; 7470323.215820922 ; 1.0803008531774828E9 ; 1.0832142986879165E8 ; 1.6968998606408205E10 ; 0.0
23 ; 7530187.275440491 ; 1.122007795903191E9 ; 1.1579175308461258E8 ; 1.804929945958569E10 ; 0.0
24 ; 7588704.754306168 ; 1.1655683616597543E9 ; 1.2332194036005306E8 ; 1.917130725548888E10 ; 0.0
25 ; 7646218.913085118 ; 1.2031106223353977E9 ; 1.3091064511435923E8 ; 2.0336875617148636E10 ; 0.0
26 ; 7706218.9506029235 ; 1.2031557074747796E9 ; 1.3855686402744436E8 ; 2.153998623948403E10 ; 0.0
27 ; 7763309.481366059 ; 1.2032020906460056E9 ; 1.4626308297804728E8 ; 2.2743141946958813E10 ; 0.0
28 ; 7820227.383681605 ; 1.2032496438983836E9 ; 1.5402639245941335E8 ; 2.394634403760482E10 ; 0.0
29 ; 7880250.059884794 ; 1.2032982523777776E9 ; 1.6184661984309494E8 ; 2.5149593681503204E10 ; 0.0
30 ; 7922860.749255225 ; 1.203347813145539E9 ; 1.6972686990297973E8 ; 2.635289193388098E10 ; 0.0
31 ; 7981764.362010956 ; 1.2033982340171227E9 ; 1.7764973065223497E8 ; 2.755623974702652E10 ; 0.0
32 ; 8035547.447713036 ; 1.2034494324561653E9 ; 1.8563149501424593E8 ; 2.8759637981043644E10 ; 0.0
33 ; 8094169.499754451 ; 1.2035013345446663E9 ; 1.9366704246195897E8 ; 2.996308741349981E10 ; 0.0
34 ; 8139897.371158479 ; 1.2035538740392916E9 ; 2.0176121196171343E8 ; 3.1166588748044476E10 ; 0.0
35 ; 8195233.457194485 ; 1.2036069915166771E9 ; 2.099011093328719E8 ; 3.2370142622083767E10 ; 0.0
36 ; 8241846.097851081 ; 1.20366063360599E9 ; 2.180963427900664E8 ; 3.3573749613600445E10 ; 0.0
37 ; 8290794.601944398 ; 1.2037147523042014E9 ; 2.2633818888791746E8 ; 3.4777410247206436E10 ; 0.0
38 ; 8335362.207883893 ; 1.203769304367989E9 ; 2.3462898348986185E8 ; 3.5981124999510635E10 ; 0.0
39 ; 8378843.114324564 ; 1.2038242507754755E9 ; 2.4296434569774574E8 ; 3.7184894303878624E10 ; 0.0
40 ; 8420492.490717292 ; 1.2038795562508821E9 ; 2.513431888120703E8 ; 3.83887185546541E10 ; 0.0
41 ; 8465301.836542219 ; 1.2039351888453672E9 ; 2.597636813027876E8 ; 3.959259811090498E10 ; 0.0
42 ; 8508498.214376532 ; 1.2039911195677223E9 ; 2.6822898313932982E8 ; 4.079653329975035E10 ; 0.0
43 ; 8544441.866090972 ; 1.2040473220591156E9 ; 2.7673748135370636E8 ; 4.200052441931807E10 ; 0.0
44 ; 8578139.66996617 ; 1.2041037723066049E9 ; 2.852819232197973E8 ; 4.320457174137718E10 ; 0.0
45 ; 8613200.566390384 ; 1.2041604483907108E9 ; 2.938600628897635E8 ; 4.4408675513683784E10 ; 0.0
46 ; 8652031.311091248 ; 1.2042173302628565E9 ; 3.0247326345615387E8 ; 4.561283596207449E10 ; 0.0
47 ; 8681298.968956819 ; 1.2042743995489717E9 ; 3.111252947672451E8 ; 4.681705329233735E10 ; 0.0
48 ; 8711054.456626322 ; 1.2043316393760195E9 ; 3.1980659373620194E8 ; 4.802132769188632E10 ; 0.0
49 ; 8735064.704016782 ; 1.204389034218586E9 ; 3.2851764819282824E8 ; 4.9225659331262344E10 ; 0.0
50 ; 8761083.753971305 ; 1.2044465697630515E9 ; 3.3725271289684504E8 ; 5.043004836548093E10 ; 0.0
51 ; 8785848.79538158 ; 1.2045042327871685E9 ; 3.460137966508163E8 ; 5.163449493524398E10 ; 0.0
52 ; 8809689.136572074 ; 1.2045620110531507E9 ; 3.547996454461979E8 ; 5.283899916803115E10 ; 0.0
53 ; 8831723.088202266 ; 1.2046198932126234E9 ; 3.6360933458277E8 ; 5.4043561179084305E10 ; 0.0
54 ; 8853846.065134214 ; 1.2046778687219992E9 ; 3.724410576709722E8 ; 5.524818107229693E10 ; 0.0
55 ; 8881065.521539025 ; 1.204735927767019E9 ; 3.8129490373610646E8 ; 5.645285894101893E10 ; 0.0
56 ; 8906220.777262293 ; 1.204794061195372E9 ; 3.901759692576455E8 ; 5.765759486878595E10 ; 0.0
57 ; 8927148.947636478 ; 1.2048522604564373E9 ; 3.9908219003490776E8 ; 5.886238892998132E10 ; 0.0
58 ; 8951448.855886806 ; 1.2049105175473146E9 ; 4.0800933898254424E8 ; 6.006724119043776E10 ; 0.0
59 ; 8970809.593041971 ; 1.2049688249644167E9 ; 4.1696078783843106E8 ; 6.127215170798508E10 ; 0.0
60 ; 8989753.117289845 ; 1.2050271756599884E9 ; 4.25931597431473E8 ; 6.247712053294949E10 ; 0.0
61 ; 9012287.792256542 ; 1.2050855630029898E9 ; 4.3492135054876286E8 ; 6.368214770860948E10 ; 0.0
62 ; 9031896.294778218 ; 1.2051439807438598E9 ; 4.439336383410194E8 ; 6.488723327161247E10 ; 0.0
63 ; 9055294.892592035 ; 1.2052024229827275E9 ; 4.529655346357976E8 ; 6.609237725235633E10 ; 0.0
64 ; 9069432.15888049 ; 1.205260884140695E9 ; 4.6202082952838963E8 ; 6.729757967533906E10 ; 0.0
65 ; 9098804.013436146 ; 1.2053193589338589E9 ; 4.710902616872701E8 ; 6.850284055947975E10 ; 0.0
66 ; 9114757.456191553 ; 1.2053778423497758E9 ; 4.8018906570070624E8 ; 6.97081599184136E10 ; 0.0
67 ; 9137198.5742503 ; 1.2054363296261182E9 ; 4.893038231568978E8 ; 7.091353776076338E10 ; 0.0
68 ; 9156269.271636745 ; 1.2054948162312875E9 ; 4.9844102173114806E8 ; 7.21189740903895E10 ; 0.0
69 ; 9179869.955644958 ; 1.2055532978467827E9 ; 5.075972910027848E8 ; 7.332446890662079E10 ; 0.0
70 ; 9197769.391872078 ; 1.2056117703511472E9 ; 5.1677716095842975E8 ; 7.453002220446758E10 ; 0.0
71 ; 9212051.970788103 ; 1.2056702298053348E9 ; 5.2597493035030186E8 ; 7.573563397481873E10 ; 0.0
72 ; 9232264.02349797 ; 1.2057286724393504E9 ; 5.3518698232109E8 ; 7.694130420462405E10 ; 0.0
73 ; 9253906.510806173 ; 1.2057870946400437E9 ; 5.444192463445879E8 ; 7.81470328770634E10 ; 0.0
74 ; 9269993.154388443 ; 1.20584549293994E9 ; 5.536731528553941E8 ; 7.935281997170345E10 ; 0.0
75 ; 9287061.176553458 ; 1.2059038640070124E9 ; 5.629431460097826E8 ; 8.055866546464339E10 ; 0.0
76 ; 9302166.098301247 ; 1.2059622046353018E9 ; 5.72230207186336E8 ; 8.17645693286504E10 ; 0.0
77 ; 9316693.926241638 ; 1.2060205117363071E9 ; 5.815323732846373E8 ; 8.29705315332857E10 ; 0.0
78 ; 9323208.749454064 ; 1.2060787823310745E9 ; 5.90849067210879E8 ; 8.417655204502202E10 ; 0.0
79 ; 9325601.981276656 ; 1.2061370135429199E9 ; 6.00172275960333E8 ; 8.538263082735309E10 ; 0.0
80 ; 9334940.206923652 ; 1.2061952025907288E9 ; 6.094978779416096E8 ; 8.658876784089601E10 ; 0.0
81 ; 9338136.280053739 ; 1.2062533467827797E9 ; 6.188328181485332E8 ; 8.779496304348674E10 ; 0.0
82 ; 9338712.464318097 ; 1.206311443511047E9 ; 6.28170954428587E8 ; 8.900121639026952E10 ; 0.0
83 ; 9339259.094264694 ; 1.2063694902459388E9 ; 6.37509666892905E8 ; 9.020752783378056E10 ; 0.0
84 ; 9345492.234631076 ; 1.2064274845314343E9 ; 6.468489259871697E8 ; 9.14138973240265E10 ; 0.0
85 ; 9345249.087965252 ; 1.2064854239805832E9 ; 6.561944182218008E8 ; 9.262032480855794E10 ; 0.0
86 ; 9349420.904804805 ; 1.206543306271341E9 ; 6.65539667309766E8 ; 9.382681023253851E10 ; 0.0
87 ; 9348252.477470774 ; 1.206601129142707E9 ; 6.748890882145709E8 ; 9.503335353880986E10 ; 0.0
88 ; 9344775.49853522 ; 1.2066588903911428E9 ; 6.842373406920416E8 ; 9.623995466795256E10 ; 0.0
89 ; 9351061.046016341 ; 1.2067165878672476E9 ; 6.935821161905769E8 ; 9.74466135583437E10 ; 0.0
90 ; 9345509.44651239 ; 1.2067742194726708E9 ; 7.029331772365932E8 ; 9.865333014621095E10 ; 0.0
91 ; 9345406.59960561 ; 1.206831783157238E9 ; 7.122786866831056E8 ; 9.986010436568362E10 ; 0.0
92 ; 9349618.999590892 ; 1.2068892769162798E9 ; 7.216240932827111E8 ; 1.0106693614884087E11 ; 0.0
93 ; 9353161.478892747 ; 1.2069466987881427E9 ; 7.30973712282302E8 ; 1.0227382542575714E11 ; 0.0
94 ; 9359312.277378738 ; 1.2070040468518705E9 ; 7.403268737611948E8 ; 1.0348077212454529E11 ; 0.0
95 ; 9348946.440650439 ; 1.2070613192250407E9 ; 7.496861860385735E8 ; 1.0468777617139716E11 ; 0.0
96 ; 9350974.012742728 ; 1.2071185140617468E9 ; 7.59035132479224E8 ; 1.058948374906222E11 ; 0.0
97 ; 9349575.483513964 ; 1.2071756295507135E9 ; 7.683861064919667E8 ; 1.0710195600468394E11 ; 0.0
98 ; 9346180.063592933 ; 1.2072326639135344E9 ; 7.777356819754807E8 ; 1.0830913163423466E11 ; 0.0
99 ; 9344514.284854002 ; 1.2072896154030256E9 ; 7.870818620390736E8 ; 1.095163642981482E11 ; 0.0
100 ; 9341145.968564231 ; 1.207346482301684E9 ; 7.964263763239276E8 ; 1.1072365391355122E11 ; 0.0
101 ; 9335759.536672026 ; 1.2074032629202445E9 ; 8.057675222924919E8 ; 1.119310003958529E11 ; 0.0
102 ; 9342328.02124969 ; 1.207459955596328E9 ; 8.151032818291639E8 ; 1.1313840365877315E11 ; 0.0
103 ; 9335824.250146395 ; 1.2075165586931741E9 ; 8.244456098504136E8 ; 1.1434586361436948E11 ; 0.0
104 ; 9334276.918449912 ; 1.2075730705984514E9 ; 8.3378143410056E8 ; 1.1555338017306265E11 ; 0.0
105 ; 9323217.913234841 ; 1.2076294897231433E9 ; 8.431157110190098E8 ; 1.167609532436611E11 ; 0.0
106 ; 9326796.458398795 ; 1.2076858145004997E9 ; 8.524389289322447E8 ; 1.1796858273338425E11 ; 0.0
107 ; 9318054.472167838 ; 1.2077420433850517E9 ; 8.617657253906435E8 ; 1.1917626854788475E11 ; 0.0
108 ; 9314659.606986476 ; 1.207798174851688E9 ; 8.710837798628113E8 ; 1.203840105912698E11 ; 0.0
109 ; 9312668.691496314 ; 1.2078542073947835E9 ; 8.803984394697978E8 ; 1.2159180876612149E11 ; 0.0
110 ; 9307503.07812759 ; 1.2079101395273807E9 ; 8.897111081612942E8 ; 1.2279966297351628E11 ; 0.0
111 ; 9296995.814981738 ; 1.2079659697804196E9 ; 8.990186112394218E8 ; 1.2400757311304366E11 ; 0.0
112 ; 9289988.897463784 ; 1.2080216967020097E9 ; 9.083156070544035E8 ; 1.2521553908282408E11 ; 0.0
113 ; 9286734.979354406 ; 1.2080773188567472E9 ; 9.176055959518673E8 ; 1.264235607795261E11 ; 0.0
114 ; 9283210.339078419 ; 1.2081328348250694E9 ; 9.268923309312217E8 ; 1.2763163809838284E11 ; 0.0
115 ; 9273491.507039381 ; 1.2081882432026472E9 ; 9.361755412703001E8 ; 1.2883977093320792E11 ; 0.0
116 ; 9268964.188066743 ; 1.2082435425998092E9 ; 9.454490327773396E8 ; 1.3004795917641057E11 ; 0.0
117 ; 9260503.078528862 ; 1.2082987316410007E9 ; 9.547179969654063E8 ; 1.3125620271901038E11 ; 0.0
118 ; 9251536.86884992 ; 1.2083538089642727E9 ; 9.639785000439352E8 ; 1.3246450145065138E11 ; 0.0
119 ; 9243117.172094207 ; 1.208408773220797E9 ; 9.73230036912785E8 ; 1.3367285525961566E11 ; 0.0
120 ; 9238858.069627471 ; 1.2084636230744104E9 ; 9.824731540848793E8 ; 1.3488126403283646E11 ; 0.0
121 ; 9230257.621837784 ; 1.2085183572011817E9 ; 9.917120121545068E8 ; 1.3608972765591087E11 ; 0.0
122 ; 9221676.415470999 ; 1.208572974289004E9 ; 1.0009422697763445E9 ; 1.3729824601311206E11 ; 0.0
123 ; 9212035.001164792 ; 1.2086274730372083E9 ; 1.0101639461918155E9 ; 1.3850681898740106E11 ; 0.0
124 ; 9205177.65952988 ; 1.2086818521561966E9 ; 1.0193759811929803E9 ; 1.3971544646043826E11 ; 0.0
125 ; 9191035.94477316 ; 1.2087361103670967E9 ; 1.0285811588525102E9 ; 1.4092412831259445E11 ; 0.0
126 ; 9181853.985592661 ; 1.2087902464014332E9 ; 1.0377721947972834E9 ; 1.4213286442296155E11 ; 0.0
127 ; 9165660.927651744 ; 1.2088442590008187E9 ; 1.046954048782876E9 ; 1.4334165466936298E11 ; 0.0
128 ; 9161913.670189923 ; 1.2088981469166567E9 ; 1.0561197097105278E9 ; 1.445504989283638E11 ; 0.0
129 ; 9152622.917475607 ; 1.208951908909865E9 ; 1.0652816233807178E9 ; 1.4575939707528046E11 ; 0.0
130 ; 9136694.456394088 ; 1.2090055437506104E9 ; 1.0744342462981935E9 ; 1.469683489841903E11 ; 0.0
131 ; 9110968.425304392 ; 1.2090590502180567E9 ; 1.0835709407545877E9 ; 1.4817735452794092E11 ; 0.0
132 ; 9088359.926425077 ; 1.2091124271001291E9 ; 1.092681909179892E9 ; 1.4938641357815897E11 ; 0.0
133 ; 9065039.685141994 ; 1.2091656731932867E9 ; 1.101770269106317E9 ; 1.505955260052591E11 ; 0.0
134 ; 9032245.570223432 ; 1.209218787302308E9 ; 1.110835308791459E9 ; 1.518046916784524E11 ; 0.0
135 ; 9008296.510898862 ; 1.20927176824009E9 ; 1.1198675543616824E9 ; 1.530139104657547E11 ; 0.0
136 ; 8986362.410072627 ; 1.2093246148274512E9 ; 1.1288758508725812E9 ; 1.5422318223399478E11 ; 0.0
137 ; 8958327.682083193 ; 1.2093773258929534E9 ; 1.1378622132826538E9 ; 1.5543250684882224E11 ; 0.0
138 ; 8938326.04211888 ; 1.2094299002727227E9 ; 1.146820540964737E9 ; 1.5664188417471518E11 ; 0.0
139 ; 8909065.29624743 ; 1.2094823368102875E9 ; 1.1557588670068557E9 ; 1.578513140749879E11 ; 0.0
140 ; 8885083.097759685 ; 1.2095346343564208E9 ; 1.1646679323031032E9 ; 1.5906079641179822E11 ; 0.0
141 ; 8863814.010263564 ; 1.2095867917689888E9 ; 1.173553015400863E9 ; 1.6027033104615463E11 ; 0.0
142 ; 8830563.039326558 ; 1.2096388079128134E9 ; 1.1824168294111266E9 ; 1.614799178379236E11 ; 0.0
143 ; 8800978.129767522 ; 1.209690681659533E9 ; 1.1912473924504533E9 ; 1.6268955664583643E11 ; 0.0
144 ; 8778945.602157714 ; 1.2097424118874772E9 ; 1.2000483705802207E9 ; 1.6389924732749597E11 ; 0.0
145 ; 8763110.398936037 ; 1.2097939974815445E9 ; 1.2088273161823785E9 ; 1.6510898973938345E11 ; 0.0
146 ; 8753529.820764534 ; 1.2098454373330867E9 ; 1.2175904265813146E9 ; 1.66318783736865E11 ; 0.0
147 ; 8741750.337091014 ; 1.2098967303397985E9 ; 1.226343956402079E9 ; 1.675286291741981E11 ; 0.0
148 ; 8731900.74301625 ; 1.209947875405613E9 ; 1.23508570673917E9 ; 1.687385259045379E11 ; 0.0
149 ; 8722421.35307765 ; 1.209998871440603E9 ; 1.2438176074821863E9 ; 1.699484737799435E11 ; 0.0
150 ; 8714652.724694809 ; 1.2100497173608863E9 ; 1.252540028835264E9 ; 1.7115847265138412E11 ; 0.0
151 ; 8698335.084568368 ; 1.2101004120885353E9 ; 1.2612546815599587E9 ; 1.7236852236874503E11 ; 0.0
152 ; 8695465.763795197 ; 1.2101509545514927E9 ; 1.269953016644527E9 ; 1.7357862278083356E11 ; 0.0
153 ; 8679862.346719254 ; 1.2102013436834893E9 ; 1.278648482408322E9 ; 1.7478877373538504E11 ; 0.0
154 ; 8667487.201832851 ; 1.2102515784239676E9 ; 1.2873283447550414E9 ; 1.7599897507906854E11 ; 0.0
155 ; 8658970.098381873 ; 1.2103016577180085E9 ; 1.2959958319568741E9 ; 1.7720922665749252E11 ; 0.0
156 ; 8642308.03367191 ; 1.2103515805162613E9 ; 1.304654802055256E9 ; 1.7841952831521054E11 ; 0.0
157 ; 8635379.464683276 ; 1.2104013457748778E9 ; 1.3132971100889277E9 ; 1.796298798957268E11 ; 0.0
158 ; 8615380.33598023 ; 1.210450952455449E9 ; 1.321932489553611E9 ; 1.8084028124150168E11 ; 0.0
159 ; 8611828.911981413 ; 1.210500399524947E9 ; 1.3305478698895912E9 ; 1.8205073219395712E11 ; 0.0
160 ; 8601946.700242175 ; 1.2105496859556649E9 ; 1.3391596988015726E9 ; 1.8326123259348206E11 ; 0.0
161 ; 8588583.345784735 ; 1.2105988107251668E9 ; 1.3477616455018148E9 ; 1.844717822794377E11 ; 0.0
162 ; 8575124.071267545 ; 1.2106477728162348E9 ; 1.3563502288475995E9 ; 1.8568238109016287E11 ; 0.0
163 ; 8568030.024952568 ; 1.21069657121682E9 ; 1.364925352918867E9 ; 1.868930288629791E11 ; 0.0
164 ; 8550215.911284031 ; 1.2107452049199975E9 ; 1.3734933829438198E9 ; 1.8810372543419592E11 ; 0.0
165 ; 8544832.900346722 ; 1.2107936729239223E9 ; 1.3820435988551037E9 ; 1.893144706391159E11 ; 0.0
166 ; 8531521.757404443 ; 1.2108419742317884E9 ; 1.3905884317554505E9 ; 1.9052526431203983E11 ; 0.0
167 ; 8517877.614081208 ; 1.2108901078517885E9 ; 1.3991199535128548E9 ; 1.917361062862716E11 ; 0.0
168 ; 8506788.001180472 ; 1.2109380727970784E9 ; 1.407637831126936E9 ; 1.9294699639412338E11 ; 0.0
169 ; 8493120.515563209 ; 1.2109858680857396E9 ; 1.4161446191281164E9 ; 1.9415793446692047E11 ; 0.0
170 ; 8483388.943174707 ; 1.2110334927407491E9 ; 1.4246377396436796E9 ; 1.9536892033500623E11 ; 0.0
171 ; 8472094.148626843 ; 1.211080945789945E9 ; 1.4331211285868542E9 ; 1.9657995382774698E11 ; 0.0
172 ; 8459870.042821415 ; 1.211128226265998E9 ; 1.441593222735481E9 ; 1.9779103477353693E11 ; 0.0
173 ; 8446101.716430385 ; 1.2111753332063832E9 ; 1.4500530927783024E9 ; 1.9900216299980292E11 ; 0.0
174 ; 8437869.26505578 ; 1.2112222656533544E9 ; 1.4584991944947329E9 ; 2.002133383330093E11 ; 0.0
175 ; 8429958.64435341 ; 1.211269022653917E9 ; 1.4669370637597888E9 ; 2.0142456059866266E11 ; 0.0
176 ; 8424004.112198642 ; 1.2113156032598064E9 ; 1.4753670224041421E9 ; 2.026358296213166E11 ; 0.0
177 ; 8417698.668240901 ; 1.2113620065274644E9 ; 1.4837910265163407E9 ; 2.038471452245764E11 ; 0.0
178 ; 8409067.14281153 ; 1.211408231518019E9 ; 1.4922087251845815E9 ; 2.0505850723110385E11 ; 0.0
179 ; 8406112.136308486 ; 1.211454277297265E9 ; 1.500617792327393E9 ; 2.0626991546262186E11 ; 0.0
180 ; 8386798.829668116 ; 1.2115001429356449E9 ; 1.5090239044637015E9 ; 2.0748136973991913E11 ; 0.0
181 ; 8383003.164164211 ; 1.2115458275082319E9 ; 1.5174107032933695E9 ; 2.0869286988285477E11 ; 0.0
182 ; 8374809.9520875765 ; 1.2115913300947142E9 ; 1.5257937064575338E9 ; 2.09904415710363E11 ; 0.0
183 ; 8371162.891752213 ; 1.211636649779379E9 ; 1.5341685164096215E9 ; 2.1111600704045773E11 ; 0.0
184 ; 8360098.602271073 ; 1.2116817856510985E9 ; 1.5425396793013737E9 ; 2.1232764369023712E11 ; 0.0
185 ; 8353967.65657306 ; 1.211726736803318E9 ; 1.5508997779036448E9 ; 2.135393254758882E11 ; 0.0
186 ; 8343858.073583461 ; 1.2117715023340423E9 ; 1.5592537455602179E9 ; 2.1475105221269153E11 ; 0.0
187 ; 8338613.2638243865 ; 1.2118160813458252E9 ; 1.5675976036338012E9 ; 2.1596282371502557E11 ; 0.0
188 ; 8329741.488440512 ; 1.2118604729457586E9 ; 1.5759362168976257E9 ; 2.171746397963714E11 ; 0.0
189 ; 8322336.416782517 ; 1.2119046762454631E9 ; 1.5842659583860662E9 ; 2.1838650026931717E11 ; 0.0
190 ; 8312892.395571867 ; 1.2119486903610795E9 ; 1.5925882948028488E9 ; 2.1959840494556262E11 ; 0.0
191 ; 8307798.342347 ; 1.2119925144132597E9 ; 1.6009011871984208E9 ; 2.208103536359237E11 ; 0.0
192 ; 8296911.172628952 ; 1.2120361475271604E9 ; 1.6092089855407677E9 ; 2.2202234615033698E11 ; 0.0
193 ; 8288107.111837506 ; 1.212079588832436E9 ; 1.6175058967133965E9 ; 2.2323438229786414E11 ; 0.0
194 ; 8279882.978506776 ; 1.2121228374632328E9 ; 1.625794003825234E9 ; 2.2444646188669656E11 ; 0.0
195 ; 8273246.712756129 ; 1.2121658925581825E9 ; 1.6340738868037407E9 ; 2.256585847241598E11 ; 0.0
196 ; 8266355.041456344 ; 1.2122087532603996E9 ; 1.642347133516497E9 ; 2.26870750616718E11 ; 0.0
197 ; 8261096.327132387 ; 1.2122514187174747E9 ; 1.6506134885579534E9 ; 2.280829593699784E11 ; 0.0
198 ; 8250011.332346285 ; 1.2122938880814729E9 ; 1.6588745848850858E9 ; 2.2929521078869586E11 ; 0.0
199 ; 8247089.423414212 ; 1.2123361605089295E9 ; 1.667124596217432E9 ; 2.3050750467677734E11 ; 0.0
200 ; 8234084.463968844 ; 1.2123782351608474E9 ; 1.6753716856408463E9 ; 2.317198408372863E11 ; 0.0
201 ; 8229211.471740602 ; 1.138087326202396E9 ; 1.683605770104815E9 ; 2.3293221907244714E11 ; 0.0
