CSV File for the Network on Day 364
1 - Minute m 
2 - Power Consumed at minute m 
3 - Power Produced at minute m 
4 - Energy Consumed since the beginning of the day 
5 - Energy Produced since the beginning of the day 
6 - Energy Lost since the beginning of the day 
 
0 ; 3.8477981863926895E7 ; 6.336838430860156E8 ; 0.0 ; 0.0 ; 0.0
1 ; 3.851382702253168E7 ; 6.345925076422535E8 ; 3.8477981863926895E7 ; 6.336838430860156E8 ; 0.0
2 ; 3.855740861889997E7 ; 6.373547433424033E8 ; 7.699180888645858E7 ; 1.268276350728269E9 ; 0.0
3 ; 3.8608908253822215E7 ; 6.419705814128412E8 ; 1.1554921750535855E8 ; 1.9056310940706725E9 ; 0.0
4 ; 3.8668203150685325E7 ; 6.484400501685698E8 ; 1.5415812575918075E8 ; 2.547601675483514E9 ; 0.0
5 ; 3.872298408675206E7 ; 6.567631747486784E8 ; 1.928263289098661E8 ; 3.1960417256520834E9 ; 0.0
6 ; 3.8825992891608454E7 ; 6.669399768734548E8 ; 2.3154931299661815E8 ; 3.8528049004007616E9 ; 0.0
7 ; 3.89502306083037E7 ; 6.789704746283994E8 ; 2.703753058882266E8 ; 4.519744877274217E9 ; 0.0
8 ; 3.913732815601595E7 ; 6.928546822800224E8 ; 3.0932553649653035E8 ; 5.1987153519026165E9 ; 0.0
9 ; 3.9422295414665386E7 ; 7.085926101277202E8 ; 3.484628646525463E8 ; 5.891570034182639E9 ; 0.0
10 ; 3.985778796032556E7 ; 7.261842643952934E8 ; 3.878851600672117E8 ; 6.600162644310359E9 ; 0.0
11 ; 4.05374247513319E7 ; 7.456296471647574E8 ; 4.277429480275372E8 ; 7.326346908705652E9 ; 0.0
12 ; 4.165627132470116E7 ; 7.669287563540965E8 ; 4.6828037277886915E8 ; 8.07197655587041E9 ; 0.0
13 ; 4.270894179347706E7 ; 7.900815857395105E8 ; 5.0993664410357034E8 ; 8.838905312224506E9 ; 0.0
14 ; 4.2832537940185316E7 ; 8.150881250216031E8 ; 5.526455858970474E8 ; 9.628986897964016E9 ; 0.0
15 ; 4.289369877712193E7 ; 8.419483599338636E8 ; 5.954781238372327E8 ; 1.0444075022985619E10 ; 0.0
16 ; 4.294139035108292E7 ; 8.70662272390792E8 ; 6.383718226143546E8 ; 1.1286023382919483E10 ; 0.0
17 ; 4.2981894104373395E7 ; 9.012298406721004E8 ; 6.813132129654375E8 ; 1.2156685655310276E10 ; 0.0
18 ; 4.303845261573206E7 ; 9.336510396386995E8 ; 7.242951070698109E8 ; 1.3057915495982376E10 ; 0.0
19 ; 4.3083032645867676E7 ; 9.679258409755868E8 ; 7.67333559685543E8 ; 1.3991566535621075E10 ; 0.0
20 ; 4.3137426730799645E7 ; 1.0040542134563857E9 ; 8.104165923314106E8 ; 1.495949237659666E10 ; 0.0
21 ; 4.318793489842254E7 ; 1.0420361232240987E9 ; 8.535540190622103E8 ; 1.5963546590053047E10 ; 0.0
22 ; 4.324407787744418E7 ; 1.081871534082625E9 ; 8.967419539606328E8 ; 1.7005582713277145E10 ; 0.0
23 ; 4.329326368662877E7 ; 1.1235604077937803E9 ; 9.39986031838077E8 ; 1.808745424735977E10 ; 0.0
24 ; 4.333884431361151E7 ; 1.1671027043748555E9 ; 9.832792955247058E8 ; 1.9211014655153553E10 ; 0.0
25 ; 4.3393013054686375E7 ; 1.2046266277812977E9 ; 1.0266181398383173E9 ; 2.0378117359528408E10 ; 0.0
26 ; 4.343244718346961E7 ; 1.2046534224136825E9 ; 1.0700111528930037E9 ; 2.1582743987309708E10 ; 0.0
27 ; 4.3477920210441485E7 ; 1.2046816605413308E9 ; 1.1134436000764732E9 ; 2.278739740972339E10 ; 0.0
28 ; 4.3534244629222885E7 ; 1.2047112980429194E9 ; 1.1569215202869148E9 ; 2.399207907026472E10 ; 0.0
29 ; 4.3581477500630364E7 ; 1.2047422904095058E9 ; 1.2004557649161377E9 ; 2.519679036830764E10 ; 0.0
30 ; 4.3630273788372636E7 ; 1.2047745929700341E9 ; 1.244037242416768E9 ; 2.6401532658717148E10 ; 0.0
31 ; 4.367870039679377E7 ; 1.2048081610977314E9 ; 1.2876675162051406E9 ; 2.7606307251687183E10 ; 0.0
32 ; 4.371522396022263E7 ; 1.2048429503968153E9 ; 1.3313462166019344E9 ; 2.8811115412784916E10 ; 0.0
33 ; 4.3761170314441845E7 ; 1.2048789168693962E9 ; 1.3750614405621572E9 ; 3.0015958363181732E10 ; 0.0
34 ; 4.380991010439973E7 ; 1.2049160170628085E9 ; 1.418822610876599E9 ; 3.122083728005113E10 ; 0.0
35 ; 4.384012177951179E7 ; 1.204954208197943E9 ; 1.4626325209809988E9 ; 3.2425753297113937E10 ; 0.0
36 ; 4.388880042830986E7 ; 1.2049934482793815E9 ; 1.5064726427605104E9 ; 3.3630707505311882E10 ; 0.0
37 ; 4.391673035213089E7 ; 1.2050336961883352E9 ; 1.5503614431888204E9 ; 3.483570095359126E10 ; 0.0
38 ; 4.3961122045392744E7 ; 1.2050749117595227E9 ; 1.5942781735409513E9 ; 3.6040734649779594E10 ; 0.0
39 ; 4.399858555822561E7 ; 1.2051170558432097E9 ; 1.638239295586344E9 ; 3.7245809561539116E10 ; 0.0
40 ; 4.402649097709815E7 ; 1.2051600903536801E9 ; 1.6822378811445696E9 ; 3.8450926617382324E10 ; 0.0
41 ; 4.4058745494367465E7 ; 1.205203978305423E9 ; 1.7262643721216679E9 ; 3.965608670773601E10 ; 0.0
42 ; 4.4095701900191315E7 ; 1.2052486838382976E9 ; 1.7703231176160352E9 ; 4.086129068604143E10 ; 0.0
43 ; 4.412525454084821E7 ; 1.2052941722329104E9 ; 1.8144188195162265E9 ; 4.206653936987972E10 ; 0.0
44 ; 4.414904006254892E7 ; 1.2053404099173746E9 ; 1.8585440740570748E9 ; 4.327183354211263E10 ; 0.0
45 ; 4.4177320810413465E7 ; 1.205387364466558E9 ; 1.9026931141196237E9 ; 4.447717395203001E10 ; 0.0
46 ; 4.419502991539078E7 ; 1.205435004594851E9 ; 1.946870434930037E9 ; 4.568256131649657E10 ; 0.0
47 ; 4.421445531472626E7 ; 1.205483300143408E9 ; 1.9910654648454278E9 ; 4.6887996321091415E10 ; 0.0
48 ; 4.4234960459376335E7 ; 1.205532222062727E9 ; 2.035279920160154E9 ; 4.8093479621234825E10 ; 0.0
49 ; 4.425222127066783E7 ; 1.2055817423913577E9 ; 2.0795148806195304E9 ; 4.9299011843297554E10 ; 0.0
50 ; 4.426607832531144E7 ; 1.2056318342314477E9 ; 2.1237671018901982E9 ; 5.050459358568891E10 ; 0.0
51 ; 4.4276527292496964E7 ; 1.2056824717217507E9 ; 2.16803318021551E9 ; 5.171022541992036E10 ; 0.0
52 ; 4.4290542695924096E7 ; 1.2057336300086648E9 ; 2.212309707508007E9 ; 5.2915907891642105E10 ; 0.0
53 ; 4.430221273937534E7 ; 1.2057852852157853E9 ; 2.2566002502039313E9 ; 5.412164152165077E10 ; 0.0
54 ; 4.4311450513263784E7 ; 1.2058374144124022E9 ; 2.3009024629433064E9 ; 5.5327426806866554E10 ; 0.0
55 ; 4.4322516753985465E7 ; 1.2058899955813155E9 ; 2.34521391345657E9 ; 5.653326422127895E10 ; 0.0
56 ; 4.433593629839347E7 ; 1.2059430075862856E9 ; 2.3895364302105556E9 ; 5.773915421686027E10 ; 0.0
57 ; 4.435478843071821E7 ; 1.2059964301393907E9 ; 2.433872366508949E9 ; 5.8945097224446556E10 ; 0.0
58 ; 4.4358928241585046E7 ; 1.2060502437685218E9 ; 2.478227154939667E9 ; 6.0151093654585945E10 ; 0.0
59 ; 4.436949016966003E7 ; 1.2061044297852085E9 ; 2.5225860831812525E9 ; 6.135714389835447E10 ; 0.0
60 ; 4.437614321133108E7 ; 1.2061589702529302E9 ; 2.5669555733509126E9 ; 6.256324832813968E10 ; 0.0
61 ; 4.438665506737927E7 ; 1.20621384795605E9 ; 2.6113317165622435E9 ; 6.376940729839261E10 ; 0.0
62 ; 4.439446398297747E7 ; 1.2062690463694685E9 ; 2.655718371629623E9 ; 6.4975621146348656E10 ; 0.0
63 ; 4.440530379541975E7 ; 1.206324549629083E9 ; 2.7001128356126003E9 ; 6.6181890192718124E10 ; 0.0
64 ; 4.441152440140323E7 ; 1.206380342503114E9 ; 2.74451813940802E9 ; 6.7388214742347206E10 ; 0.0
65 ; 4.441708082467946E7 ; 1.2064364103643432E9 ; 2.7889296638094234E9 ; 6.859459508485032E10 ; 0.0
66 ; 4.442457012947852E7 ; 1.2064927391632977E9 ; 2.833346744634103E9 ; 6.980103149521466E10 ; 0.0
67 ; 4.4427315287594445E7 ; 1.2065493154024003E9 ; 2.8777713147635813E9 ; 7.100752423437796E10 ; 0.0
68 ; 4.4442952955113105E7 ; 1.2066061261110878E9 ; 2.9221986300511756E9 ; 7.221407354978036E10 ; 0.0
69 ; 4.443929995140384E7 ; 1.20666315882191E9 ; 2.9666415830062885E9 ; 7.342067967589145E10 ; 0.0
70 ; 4.445573747975255E7 ; 1.2067204015475943E9 ; 3.011080882957692E9 ; 7.462734283471336E10 ; 0.0
71 ; 4.445887442936574E7 ; 1.2067778427590656E9 ; 3.0555366204374447E9 ; 7.583406323626096E10 ; 0.0
72 ; 4.4462180747756645E7 ; 1.2068354713644085E9 ; 3.0999954948668103E9 ; 7.704084107902002E10 ; 0.0
73 ; 4.446971506701572E7 ; 1.206893276688744E9 ; 3.144457675614567E9 ; 7.824767655038443E10 ; 0.0
74 ; 4.4464894203923106E7 ; 1.2069512484550066E9 ; 3.1889273906815825E9 ; 7.945456982707318E10 ; 0.0
75 ; 4.4471373187825784E7 ; 1.207009376765586E9 ; 3.2333922848855057E9 ; 8.066152107552818E10 ; 0.0
76 ; 4.447509971273596E7 ; 1.2070676520848114E9 ; 3.2778636580733314E9 ; 8.186853045229376E10 ; 0.0
77 ; 4.447089033475736E7 ; 1.207126065222251E9 ; 3.3223387577860675E9 ; 8.307559810437857E10 ; 0.0
78 ; 4.446158607607731E7 ; 1.2071846073167906E9 ; 3.366809648120825E9 ; 8.428272416960081E10 ; 0.0
79 ; 4.445393176309099E7 ; 1.2072432698214686E9 ; 3.4112712341969023E9 ; 8.54899087769176E10 ; 0.0
80 ; 4.443996302966098E7 ; 1.2073020444890325E9 ; 3.4557251659599934E9 ; 8.669715204673907E10 ; 0.0
81 ; 4.442852692877567E7 ; 1.2073609233581886E9 ; 3.5001651289896545E9 ; 8.79044540912281E10 ; 0.0
82 ; 4.441521683892815E7 ; 1.207419898740515E9 ; 3.5445936559184303E9 ; 8.911181501458629E10 ; 0.0
83 ; 4.440310645047342E7 ; 1.2074789632080095E9 ; 3.5890088727573586E9 ; 9.03192349133268E10 ; 0.0
84 ; 4.439517191773622E7 ; 1.2075381095812435E9 ; 3.633411979207832E9 ; 9.15267138765348E10 ; 0.0
85 ; 4.4374912912803486E7 ; 1.2075973309180923E9 ; 3.677807151125568E9 ; 9.273425198611604E10 ; 0.0
86 ; 4.436246371836692E7 ; 1.2076566205030189E9 ; 3.7221820640383716E9 ; 9.394184931703413E10 ; 0.0
87 ; 4.4348790863029934E7 ; 1.2077159718368812E9 ; 3.7665445277567387E9 ; 9.514950593753716E10 ; 0.0
88 ; 4.433307214342251E7 ; 1.2077753786272402E9 ; 3.8108933186197686E9 ; 9.635722190937404E10 ; 0.0
89 ; 4.4318945896489844E7 ; 1.2078348347791436E9 ; 3.855226390763191E9 ; 9.756499728800128E10 ; 0.0
90 ; 4.429951031366639E7 ; 1.2078943343863602E9 ; 3.899545336659681E9 ; 9.877283212278043E10 ; 0.0
91 ; 4.428368734698203E7 ; 1.2079538717230477E9 ; 3.943844846973347E9 ; 9.998072645716678E10 ; 0.0
92 ; 4.426946485109797E7 ; 1.208013441235827E9 ; 3.988128534320329E9 ; 1.0118868032888983E11 ; 0.0
93 ; 4.4250977661186494E7 ; 1.2080730375362444E9 ; 4.0323979991714272E9 ; 1.0239669377012566E11 ; 0.0
94 ; 4.4235724359577775E7 ; 1.2081326553936048E9 ; 4.076648976832614E9 ; 1.036047668076619E11 ; 0.0
95 ; 4.422086227844666E7 ; 1.2081922897281525E9 ; 4.1208847011921916E9 ; 1.048128994630555E11 ; 0.0
96 ; 4.418953386915114E7 ; 1.2082519356045856E9 ; 4.1651055634706383E9 ; 1.0602109175278365E11 ; 0.0
97 ; 4.417980832705148E7 ; 1.2083115882258878E9 ; 4.2092950973397894E9 ; 1.0722934368838823E11 ; 0.0
98 ; 4.4165101194645196E7 ; 1.208371242927455E9 ; 4.253474905666841E9 ; 1.0843765527661412E11 ; 0.0
99 ; 4.413858433484575E7 ; 1.2084308951715114E9 ; 4.297640006861486E9 ; 1.0964602651954158E11 ; 0.0
100 ; 4.411619826769468E7 ; 1.2084905405417912E9 ; 4.341778591196332E9 ; 1.1085445741471309E11 ; 0.0
101 ; 4.410248257218102E7 ; 1.2085501747384787E9 ; 4.385894789464026E9 ; 1.1206294795525488E11 ; 0.0
102 ; 4.407835816211881E7 ; 1.2086097935733893E9 ; 4.429997272036207E9 ; 1.1327149812999336E11 ; 0.0
103 ; 4.4063503816059515E7 ; 1.2086693929653828E9 ; 4.474075630198326E9 ; 1.1448010792356676E11 ; 0.0
104 ; 4.403707161672121E7 ; 1.2087289689359941E9 ; 4.518139134014385E9 ; 1.1568877731653214E11 ; 0.0
105 ; 4.4006904929103576E7 ; 1.2087885176052706E9 ; 4.562176205631106E9 ; 1.1689750628546812E11 ; 0.0
106 ; 4.39901020629874E7 ; 1.2088480351878092E9 ; 4.60618311056021E9 ; 1.181062948030734E11 ; 0.0
107 ; 4.397190948273006E7 ; 1.208907517988977E9 ; 4.650173212623198E9 ; 1.193151428382612E11 ; 0.0
108 ; 4.394289342372887E7 ; 1.2089669624013119E9 ; 4.694145122105927E9 ; 1.2052405035625018E11 ; 0.0
109 ; 4.392633595928052E7 ; 1.2090263649010882E9 ; 4.738088015529656E9 ; 1.2173301731865149E11 ; 0.0
110 ; 4.390080501271384E7 ; 1.209085722045048E9 ; 4.782014351488937E9 ; 1.2294204368355258E11 ; 0.0
111 ; 4.387458619065273E7 ; 1.209145030467277E9 ; 4.825915156501651E9 ; 1.2415112940559763E11 ; 0.0
112 ; 4.3852910744846076E7 ; 1.2092042868762295E9 ; 4.869789742692304E9 ; 1.253602744360649E11 ; 0.0
113 ; 4.382496345912312E7 ; 1.2092634880518892E9 ; 4.91364265343715E9 ; 1.2656947872294113E11 ; 0.0
114 ; 4.379544535763493E7 ; 1.2093226308430583E9 ; 4.957467616896273E9 ; 1.2777874221099303E11 ; 0.0
115 ; 4.3772992985048465E7 ; 1.209381712164772E9 ; 5.001263062253907E9 ; 1.2898806484183609E11 ; 0.0
116 ; 4.3743756546915114E7 ; 1.2094407289958298E9 ; 5.0450360552389555E9 ; 1.3019744655400085E11 ; 0.0
117 ; 4.3713520753031485E7 ; 1.2094996783764381E9 ; 5.088779811785871E9 ; 1.3140688728299669E11 ; 0.0
118 ; 4.369029865828074E7 ; 1.2095585574059587E9 ; 5.132493332538902E9 ; 1.3261638696137312E11 ; 0.0
119 ; 4.366509024679203E7 ; 1.2096173632407582E9 ; 5.176183631197183E9 ; 1.3382594551877908E11 ; 0.0
120 ; 4.3634036034266524E7 ; 1.2096760930921535E9 ; 5.2198487214439745E9 ; 1.3503556288201984E11 ; 0.0
121 ; 4.3600567601389945E7 ; 1.2097347442244492E9 ; 5.263482757478241E9 ; 1.3624523897511198E11 ; 0.0
122 ; 4.357505618583334E7 ; 1.2097933139530578E9 ; 5.307083325079631E9 ; 1.3745497371933643E11 ; 0.0
123 ; 4.354813999683131E7 ; 1.2098517996427095E9 ; 5.350658381265464E9 ; 1.386647670332895E11 ; 0.0
124 ; 4.351272486773341E7 ; 1.2099101987057326E9 ; 5.394206521262295E9 ; 1.398746188329322E11 ; 0.0
125 ; 4.34868242907926E7 ; 1.2099685086004148E9 ; 5.437719246130028E9 ; 1.410845290316379E11 ; 0.0
126 ; 4.345499184682588E7 ; 1.2100267268294313E9 ; 5.48120607042082E9 ; 1.422944975402383E11 ; 0.0
127 ; 4.34204365187051E7 ; 1.210084850938345E9 ; 5.524661062267646E9 ; 1.4350452426706775E11 ; 0.0
128 ; 4.338747796383553E7 ; 1.2101428785141647E9 ; 5.568081498786351E9 ; 1.447146091180061E11 ; 0.0
129 ; 4.336212505802449E7 ; 1.2102008071839736E9 ; 5.611468976750187E9 ; 1.4592475199652026E11 ; 0.0
130 ; 4.332026658786641E7 ; 1.210258634613608E9 ; 5.654831101808211E9 ; 1.4713495280370422E11 ; 0.0
131 ; 4.3281891806811966E7 ; 1.2103163585063956E9 ; 5.698151368396078E9 ; 1.4834521143831784E11 ; 0.0
132 ; 4.3235241251213275E7 ; 1.2103739766019483E9 ; 5.74143326020289E9 ; 1.4955552779682425E11 ; 0.0
133 ; 4.3184443168386E7 ; 1.2104314866750035E9 ; 5.784668501454103E9 ; 1.507659017734262E11 ; 0.0
134 ; 4.31294485004709E7 ; 1.2104888865343127E9 ; 5.82785294462249E9 ; 1.5197633326010123E11 ; 0.0
135 ; 4.309138510956411E7 ; 1.2105461740215807E9 ; 5.870982393122961E9 ; 1.5318682214663553E11 ; 0.0
136 ; 4.303831422831263E7 ; 1.2106033470104437E9 ; 5.914073778232525E9 ; 1.543973683206571E11 ; 0.0
137 ; 4.2996290252221376E7 ; 1.2106604034054923E9 ; 5.957112092460837E9 ; 1.5560797166766754E11 ; 0.0
138 ; 4.2940653104441695E7 ; 1.210717341141335E9 ; 6.000108382713058E9 ; 1.5681863207107303E11 ; 0.0
139 ; 4.289963415064538E7 ; 1.2107741581816974E9 ; 6.0430490358175E9 ; 1.5802934941221436E11 ; 0.0
140 ; 4.284487668884139E7 ; 1.2108308525185604E9 ; 6.085948669968145E9 ; 1.5924012357039606E11 ; 0.0
141 ; 4.278902036786961E7 ; 1.210887422171332E9 ; 6.128793546656987E9 ; 1.604509544229146E11 ; 0.0
142 ; 4.274809158532296E7 ; 1.2109438651860535E9 ; 6.171582567024857E9 ; 1.6166184184508594E11 ; 0.0
143 ; 4.2698515513641044E7 ; 1.2110001796346364E9 ; 6.21433065861018E9 ; 1.62872785710272E11 ; 0.0
144 ; 4.2645492573144436E7 ; 1.2110563636141298E9 ; 6.257029174123821E9 ; 1.6408378588990665E11 ; 0.0
145 ; 4.26129039407301E7 ; 1.2111124152460182E9 ; 6.299674666696966E9 ; 1.6529484225352078E11 ; 0.0
146 ; 4.2574939124509156E7 ; 1.2111683326755455E9 ; 6.342287570637696E9 ; 1.665059546687668E11 ; 0.0
147 ; 4.2544784245886E7 ; 1.211224114071067E9 ; 6.384862509762205E9 ; 1.6771712300144235E11 ; 0.0
148 ; 4.2504488281244606E7 ; 1.211279757623427E9 ; 6.427407294008091E9 ; 1.6892834711551343E11 ; 0.0
149 ; 4.246771127301744E7 ; 1.2113352615453568E9 ; 6.469911782289335E9 ; 1.7013962687313684E11 ; 0.0
150 ; 4.2429930216552444E7 ; 1.2113906240709035E9 ; 6.512379493562353E9 ; 1.713509621346822E11 ; 0.0
151 ; 4.239973777390671E7 ; 1.2114458434548743E9 ; 6.554809423778906E9 ; 1.7256235275875308E11 ; 0.0
152 ; 4.23603771428658E7 ; 1.2115009179723046E9 ; 6.597209161552813E9 ; 1.7377379860220795E11 ; 0.0
153 ; 4.232309875187503E7 ; 1.2115558459179478E9 ; 6.639569538695679E9 ; 1.7498529952018024E11 ; 0.0
154 ; 4.229188670099165E7 ; 1.2116106256057825E9 ; 6.681892637447554E9 ; 1.7619685536609818E11 ; 0.0
155 ; 4.225337679749968E7 ; 1.2116652553685403E9 ; 6.724184524148545E9 ; 1.7740846599170395E11 ; 0.0
156 ; 4.221911237584221E7 ; 1.21171973355725E9 ; 6.766437900946045E9 ; 1.7862013124707248E11 ; 0.0
157 ; 4.218079453385659E7 ; 1.2117740585408008E9 ; 6.808657013321887E9 ; 1.7983185098062973E11 ; 0.0
158 ; 4.215054912190334E7 ; 1.2118282287055194E9 ; 6.850837807855743E9 ; 1.8104362503917053E11 ; 0.0
159 ; 4.2105307139255084E7 ; 1.2118822424547665E9 ; 6.892988356977647E9 ; 1.8225545326787604E11 ; 0.0
160 ; 4.207109540653491E7 ; 1.2119360982085447E9 ; 6.935093664116902E9 ; 1.834673355103308E11 ; 0.0
161 ; 4.2036688255747646E7 ; 1.211989794403124E9 ; 6.9771647595234375E9 ; 1.8467927160853937E11 ; 0.0
162 ; 4.1995708067120425E7 ; 1.2120433294906795E9 ; 7.019201447779185E9 ; 1.858912614029425E11 ; 0.0
163 ; 4.1955912891657054E7 ; 1.2120967019389434E9 ; 7.061197155846306E9 ; 1.871033047324332E11 ; 0.0
164 ; 4.192511455340181E7 ; 1.2121499102308688E9 ; 7.103153068737963E9 ; 1.8831540143437213E11 ; 0.0
165 ; 4.188856731756977E7 ; 1.2122029528643074E9 ; 7.145078183291365E9 ; 1.89527551344603E11 ; 0.0
166 ; 4.1849293913622215E7 ; 1.2122558283516972E9 ; 7.186966750608934E9 ; 1.9073975429746732E11 ; 0.0
167 ; 4.181454965866632E7 ; 1.2123085352197638E9 ; 7.228816044522556E9 ; 1.91952010125819E11 ; 0.0
168 ; 4.17669391648642E7 ; 1.2123610720092301E9 ; 7.270630594181223E9 ; 1.9316431866103876E11 ; 0.0
169 ; 4.17305575929727E7 ; 1.2124134372745395E9 ; 7.312397533346087E9 ; 1.9437667973304797E11 ; 0.0
170 ; 4.168636513791565E7 ; 1.2124656295835848E9 ; 7.35412809093906E9 ; 1.955890931703225E11 ; 0.0
171 ; 4.165222105929245E7 ; 1.2125176475174522E9 ; 7.395814456076976E9 ; 1.968015587999061E11 ; 0.0
172 ; 4.160712646620042E7 ; 1.2125694896701703E9 ; 7.437466677136269E9 ; 1.9801407644742355E11 ; 0.0
173 ; 4.156846252667501E7 ; 1.21262115464847E9 ; 7.479073803602469E9 ; 1.9922664593709372E11 ; 0.0
174 ; 4.155079909895529E7 ; 1.2126726410715525E9 ; 7.520642266129145E9 ; 2.004392670917422E11 ; 0.0
175 ; 4.153133858807843E7 ; 1.212723947570866E9 ; 7.5621930652281E9 ; 2.0165193973281375E11 ; 0.0
176 ; 4.150191207260576E7 ; 1.2127750727898898E9 ; 7.603724403816178E9 ; 2.028646636803846E11 ; 0.0
177 ; 4.147765787727028E7 ; 1.2128260153839262E9 ; 7.645226315888784E9 ; 2.040774387531745E11 ; 0.0
178 ; 4.1457406935120866E7 ; 1.2128767740199003E9 ; 7.686703973766055E9 ; 2.052902647685584E11 ; 0.0
179 ; 4.142830012459733E7 ; 1.2129273473761656E9 ; 7.728161380701176E9 ; 2.065031415425783E11 ; 0.0
180 ; 4.1409200770016715E7 ; 1.2129777341423185E9 ; 7.769589680825773E9 ; 2.0771606888995447E11 ; 0.0
181 ; 4.1381827941320024E7 ; 1.2130279330190172E9 ; 7.81099888159579E9 ; 2.0892904662409677E11 ; 0.0
182 ; 4.136047628953368E7 ; 1.2130779427178073E9 ; 7.85238070953711E9 ; 2.1014207455711578E11 ; 0.0
183 ; 4.133390742245257E7 ; 1.213127761960956E9 ; 7.893741185826644E9 ; 2.113551524998336E11 ; 0.0
184 ; 4.130688465808818E7 ; 1.2131773894812884E9 ; 7.935075093249097E9 ; 2.1256828026179456E11 ; 0.0
185 ; 4.12919675883833E7 ; 1.2132268240220315E9 ; 7.976381977907185E9 ; 2.1378145765127585E11 ; 0.0
186 ; 4.125836644629282E7 ; 1.2132760643366642E9 ; 8.017673945495568E9 ; 2.1499468447529788E11 ; 0.0
187 ; 4.1239215687136866E7 ; 1.2133251091887708E9 ; 8.058932311941861E9 ; 2.1620796053963455E11 ; 0.0
188 ; 4.121378996710926E7 ; 1.213373957351901E9 ; 8.100171527628998E9 ; 2.1742128564882333E11 ; 0.0
189 ; 4.119402528859563E7 ; 1.2134226076094332E9 ; 8.1413853175961075E9 ; 2.1863465960617523E11 ; 0.0
190 ; 4.116904185741532E7 ; 1.2134710587544456E9 ; 8.182579342884703E9 ; 2.1984808221378467E11 ; 0.0
191 ; 4.1142708008225225E7 ; 1.2135193095895867E9 ; 8.223748384742118E9 ; 2.2106155327253912E11 ; 0.0
192 ; 4.112061850169159E7 ; 1.2135673589269562E9 ; 8.264891092750343E9 ; 2.2227507258212872E11 ; 0.0
193 ; 4.1097881722090565E7 ; 1.2136152055879846E9 ; 8.306011711252035E9 ; 2.2348863994105566E11 ; 0.0
194 ; 4.1070112838551104E7 ; 1.2136628484033213E9 ; 8.347109592974126E9 ; 2.2470225514664365E11 ; 0.0
195 ; 4.1048993373508304E7 ; 1.213710286212722E9 ; 8.388179705812677E9 ; 2.2591591799504697E11 ; 0.0
196 ; 4.1026495550878406E7 ; 1.2137575178649461E9 ; 8.429228699186186E9 ; 2.2712962828125967E11 ; 0.0
