CSV File for the Network on Day 352
1 - Minute m 
2 - Power Consumed at minute m 
3 - Power Produced at minute m 
4 - Energy Consumed since the beginning of the day 
5 - Energy Produced since the beginning of the day 
6 - Energy Lost since the beginning of the day 
 
0 ; 3.856854787229959E7 ; 6.350729284816227E8 ; 0.0 ; 0.0 ; 0.0
1 ; 3.861879866291509E7 ; 6.359837531402056E8 ; 3.856854787229959E7 ; 6.350729284816227E8 ; 0.0
2 ; 3.8657828430719286E7 ; 6.387479687310482E8 ; 7.718734653521468E7 ; 1.2710566816218283E9 ; 0.0
3 ; 3.870263320326238E7 ; 6.433655916994224E8 ; 1.1584517496593396E8 ; 1.9098046503528767E9 ; 0.0
4 ; 3.8759876030932024E7 ; 6.498366367851164E8 ; 1.5454780816919634E8 ; 2.553170242052299E9 ; 0.0
5 ; 3.882979411748906E7 ; 6.581611169401345E8 ; 1.9330768420012838E8 ; 3.2030068788374157E9 ; 0.0
6 ; 3.892237432314052E7 ; 6.683390432549782E8 ; 2.3213747831761745E8 ; 3.86116799577755E9 ; 0.0
7 ; 3.905333431146626E7 ; 6.803704248944842E8 ; 2.71059852640758E8 ; 4.529507039032528E9 ; 0.0
8 ; 3.92370041975082E7 ; 6.942552690440727E8 ; 3.1011318695222425E8 ; 5.209877463927012E9 ; 0.0
9 ; 3.952141936343166E7 ; 7.099935808671429E8 ; 3.493501911497325E8 ; 5.904132732971086E9 ; 0.0
10 ; 3.9949370846716285E7 ; 7.275853634742038E8 ; 3.8887161051316416E8 ; 6.614126313838228E9 ; 0.0
11 ; 4.064383714707069E7 ; 7.470306179041799E8 ; 4.2882098135988045E8 ; 7.341711677312432E9 ; 0.0
12 ; 4.175210822269952E7 ; 7.683293431181468E8 ; 4.6946481850695115E8 ; 8.088742295216612E9 ; 0.0
13 ; 4.281248025897349E7 ; 7.914815360055952E8 ; 5.112169267296507E8 ; 8.857071638334759E9 ; 0.0
14 ; 4.2937906950914994E7 ; 8.164871914031265E8 ; 5.540294069886242E8 ; 9.648553174340355E9 ; 0.0
15 ; 4.298813966289632E7 ; 8.433463021253197E8 ; 5.969673139395392E8 ; 1.046504036574348E10 ; 0.0
16 ; 4.3030293629125625E7 ; 8.720588590073389E8 ; 6.399554536024355E8 ; 1.1308386667868801E10 ; 0.0
17 ; 4.308519541744793E7 ; 9.026248509586816E8 ; 6.829857472315611E8 ; 1.218044552687614E10 ; 0.0
18 ; 4.313740803225367E7 ; 9.350442650273447E8 ; 7.26070942649009E8 ; 1.3083070377834822E10 ; 0.0
19 ; 4.319351400152986E7 ; 9.693170864735388E8 ; 7.692083506812626E8 ; 1.4018114642862167E10 ; 0.0
20 ; 4.324028264294576E7 ; 1.0054432988519928E9 ; 8.124018646827924E8 ; 1.4987431729335707E10 ; 0.0
21 ; 4.32901497631819E7 ; 1.0434228841017967E9 ; 8.556421473257382E8 ; 1.59928750281877E10 ; 0.0
22 ; 4.333663880016314E7 ; 1.0832558226426764E9 ; 8.989322970889201E8 ; 1.7036297912289497E10 ; 0.0
23 ; 4.3391370457106635E7 ; 1.1249420934765599E9 ; 9.422689358890833E8 ; 1.8119553734932175E10 ; 0.0
24 ; 4.34423216404346E7 ; 1.168481674293269E9 ; 9.856603063461899E8 ; 1.9244495828408733E10 ; 0.0
25 ; 4.348840484017458E7 ; 1.206002786968297E9 ; 1.0291026279866245E9 ; 2.0412977502702003E10 ; 0.0
26 ; 4.353957335362419E7 ; 1.2060266938947182E9 ; 1.072591032826799E9 ; 2.16189802896703E10 ; 0.0
27 ; 4.359517881074956E7 ; 1.206051985243926E9 ; 1.1161306061804233E9 ; 2.2825006983565018E10 ; 0.0
28 ; 4.3642534936530255E7 ; 1.2060786345573568E9 ; 1.1597257849911728E9 ; 2.4031058968808945E10 ; 0.0
29 ; 4.3693705019091316E7 ; 1.2061066146158826E9 ; 1.2033683199277031E9 ; 2.5237137603366302E10 ; 0.0
30 ; 4.374160549130176E7 ; 1.2061358975477026E9 ; 1.2470620249467945E9 ; 2.6443244217982185E10 ; 0.0
31 ; 4.3782963469828896E7 ; 1.2061664549334505E9 ; 1.2908036304380963E9 ; 2.764938011552989E10 ; 0.0
32 ; 4.3824387835524574E7 ; 1.206198257907837E9 ; 1.3345865939079251E9 ; 2.8855546570463337E10 ; 0.0
33 ; 4.3868615811590776E7 ; 1.2062312772572622E9 ; 1.3784109817434497E9 ; 3.0061744828371174E10 ; 0.0
34 ; 4.3912045334295124E7 ; 1.2062654835129218E9 ; 1.4222795975550404E9 ; 3.1267976105628437E10 ; 0.0
35 ; 4.395981237783697E7 ; 1.2063008470390217E9 ; 1.4661916428893354E9 ; 3.2474241589141357E10 ; 0.0
36 ; 4.4000684249740146E7 ; 1.206337338115819E9 ; 1.5101514552671723E9 ; 3.3680542436180378E10 ; 0.0
37 ; 4.4031925779653125E7 ; 1.206374927017277E9 ; 1.5541521395169125E9 ; 3.4886879774296196E10 ; 0.0
38 ; 4.4075260152173884E7 ; 1.2064135840832138E9 ; 1.5981840652965655E9 ; 3.609325470131348E10 ; 0.0
39 ; 4.4114814134665124E7 ; 1.2064532797858882E9 ; 1.6422593254487395E9 ; 3.729966828539669E10 ; 0.0
40 ; 4.414301292829134E7 ; 1.2064939847910361E9 ; 1.6863741395834045E9 ; 3.850612156518258E10 ; 0.0
41 ; 4.417862957112086E7 ; 1.206535670013418E9 ; 1.7305171525116959E9 ; 3.971261554997362E10 ; 0.0
42 ; 4.4208990342827685E7 ; 1.2065783066670032E9 ; 1.7746957820828166E9 ; 4.091915121998704E10 ; 0.0
43 ; 4.423226222291147E7 ; 1.2066218663099391E9 ; 1.8189047724256444E9 ; 4.212572952665404E10 ; 0.0
44 ; 4.426551790968784E7 ; 1.2066663208845034E9 ; 1.8631370346485558E9 ; 4.3332351392963974E10 ; 0.0
45 ; 4.428688681173734E7 ; 1.2067116427522507E9 ; 1.9074025525582435E9 ; 4.453901771384848E10 ; 0.0
46 ; 4.4313697735050544E7 ; 1.2067578047245994E9 ; 1.9516894393699808E9 ; 4.574572935660073E10 ; 0.0
47 ; 4.4337464419056535E7 ; 1.206804780089109E9 ; 1.9960031371050313E9 ; 4.695248716132533E10 ; 0.0
48 ; 4.435299204817822E7 ; 1.206852542631712E9 ; 2.040340601524088E9 ; 4.8159291941414444E10 ; 0.0
49 ; 4.437257301169149E7 ; 1.2069010666551728E9 ; 2.084693593572266E9 ; 4.936614448404616E10 ; 0.0
50 ; 4.438485610293553E7 ; 1.2069503269940398E9 ; 2.1290661665839577E9 ; 5.057304555070133E10 ; 0.0
51 ; 4.440059150477469E7 ; 1.2070002990263631E9 ; 2.173451022686893E9 ; 5.177999587769537E10 ; 0.0
52 ; 4.441328156512101E7 ; 1.2070509586824436E9 ; 2.2178516141916676E9 ; 5.298699617672173E10 ; 0.0
53 ; 4.442985195256053E7 ; 1.2071022824508634E9 ; 2.2622648957567887E9 ; 5.4194047135404175E10 ; 0.0
54 ; 4.44431805443538E7 ; 1.2071542473820531E9 ; 2.306694747709349E9 ; 5.540114941785504E10 ; 0.0
55 ; 4.445109835557586E7 ; 1.2072068310896292E9 ; 2.351137928253703E9 ; 5.660830366523709E10 ; 0.0
56 ; 4.4460706403079644E7 ; 1.2072600117497292E9 ; 2.395589026609279E9 ; 5.781551049632672E10 ; 0.0
57 ; 4.448011251580318E7 ; 1.2073137680985556E9 ; 2.4400497330123587E9 ; 5.902277050807645E10 ; 0.0
58 ; 4.449598625864337E7 ; 1.2073680794283333E9 ; 2.484529845528162E9 ; 6.0230084276175E10 ; 0.0
59 ; 4.4495004378779456E7 ; 1.2074229255818665E9 ; 2.529025831786805E9 ; 6.143745235560333E10 ; 0.0
60 ; 4.450611793214511E7 ; 1.207478286945865E9 ; 2.5735208361655846E9 ; 6.2644875281185196E10 ; 0.0
61 ; 4.451807286950025E7 ; 1.2075341444432135E9 ; 2.6180269540977297E9 ; 6.385235356813106E10 ; 0.0
62 ; 4.453236394885584E7 ; 1.207590479524321E9 ; 2.66254502696723E9 ; 6.505988771257427E10 ; 0.0
63 ; 4.453781697982614E7 ; 1.2076472741576934E9 ; 2.7070773909160857E9 ; 6.6267478192098595E10 ; 0.0
64 ; 4.454559320578366E7 ; 1.2077045108198533E9 ; 2.7516152078959117E9 ; 6.747512546625629E10 ; 0.0
65 ; 4.45542427969912E7 ; 1.2077621724847229E9 ; 2.7961608011016955E9 ; 6.868282997707614E10 ; 0.0
66 ; 4.45661548105099E7 ; 1.2078202426125698E9 ; 2.840715043898687E9 ; 6.989059214956087E10 ; 0.0
67 ; 4.456686649074304E7 ; 1.2078787051386123E9 ; 2.8852811987091966E9 ; 7.109841239217343E10 ; 0.0
68 ; 4.4576063261849195E7 ; 1.2079375444613671E9 ; 2.9298480651999397E9 ; 7.230629109731204E10 ; 0.0
69 ; 4.45814757350104E7 ; 1.2079967454308136E9 ; 2.974424128461789E9 ; 7.35142286417734E10 ; 0.0
70 ; 4.45865966938519E7 ; 1.208056293336445E9 ; 3.0190056041967998E9 ; 7.472222538720422E10 ; 0.0
71 ; 4.4599091341794744E7 ; 1.2081161738952615E9 ; 3.0635922008906517E9 ; 7.593028168054066E10 ; 0.0
72 ; 4.460544473704864E7 ; 1.2081763732397618E9 ; 3.1081912922324467E9 ; 7.713839785443593E10 ; 0.0
73 ; 4.460210621465357E7 ; 1.2082368779059787E9 ; 3.1527967369694953E9 ; 7.834657422767569E10 ; 0.0
74 ; 4.461019283005649E7 ; 1.208297674821595E9 ; 3.197398843184149E9 ; 7.955481110558167E10 ; 0.0
75 ; 4.460924638202191E7 ; 1.2083587512941828E9 ; 3.2420090360142055E9 ; 8.076310878040326E10 ; 0.0
76 ; 4.462199000766962E7 ; 1.2084200949995873E9 ; 3.2866182823962274E9 ; 8.197146753169745E10 ; 0.0
77 ; 4.4620242588925734E7 ; 1.208481693970488E9 ; 3.331240272403897E9 ; 8.317988762669704E10 ; 0.0
78 ; 4.4610169093932986E7 ; 1.2085435365851562E9 ; 3.3758605149928226E9 ; 8.438836932066753E10 ; 0.0
79 ; 4.4602294697383046E7 ; 1.208605611556426E9 ; 3.4204706840867558E9 ; 8.559691285725269E10 ; 0.0
80 ; 4.459254136648561E7 ; 1.208667907920896E9 ; 3.4650729787841387E9 ; 8.680551846880911E10 ; 0.0
81 ; 4.4579727156403854E7 ; 1.2087304150283742E9 ; 3.5096655201506243E9 ; 8.801418637673001E10 ; 0.0
82 ; 4.4574208859472185E7 ; 1.2087931225315719E9 ; 3.5542452473070283E9 ; 8.922291679175839E10 ; 0.0
83 ; 4.455999643594973E7 ; 1.20885602037606E9 ; 3.5988194561665006E9 ; 9.043170991428996E10 ; 0.0
84 ; 4.454487010434878E7 ; 1.2089190987904863E9 ; 3.6433794526024504E9 ; 9.164056593466602E10 ; 0.0
85 ; 4.453276148057181E7 ; 1.208982348277064E9 ; 3.687924322706799E9 ; 9.28494850334565E10 ; 0.0
86 ; 4.452406465159713E7 ; 1.2090457596023266E9 ; 3.732457084187371E9 ; 9.405846738173357E10 ; 0.0
87 ; 4.4507270873038284E7 ; 1.2091093237881563E9 ; 3.776981148838968E9 ; 9.526751314133589E10 ; 0.0
88 ; 4.449028180017424E7 ; 1.2091730321030793E9 ; 3.821488419712006E9 ; 9.647662246512405E10 ; 0.0
89 ; 4.447864396334225E7 ; 1.2092368760538337E9 ; 3.8659787015121803E9 ; 9.768579549722713E10 ; 0.0
90 ; 4.446862700673321E7 ; 1.2093008473771968E9 ; 3.9104573454755225E9 ; 9.889503237328096E10 ; 0.0
91 ; 4.443880323946547E7 ; 1.2093649380320802E9 ; 3.954925972482256E9 ; 1.0010433322065816E11 ; 0.0
92 ; 4.443534660882732E7 ; 1.209429140191881E9 ; 3.999364775721721E9 ; 1.0131369815869023E11 ; 0.0
93 ; 4.442462855024787E7 ; 1.2094934462370863E9 ; 4.0438001223305483E9 ; 1.0252312729888211E11 ; 0.0
94 ; 4.440475922778268E7 ; 1.2095578487481282E9 ; 4.088224750880796E9 ; 1.037326207451192E11 ; 0.0
95 ; 4.438962168508243E7 ; 1.2096223404984813E9 ; 4.1326295101085787E9 ; 1.0494217859386732E11 ; 0.0
96 ; 4.437072189100294E7 ; 1.2096869144479985E9 ; 4.177019131793661E9 ; 1.061518009343658E11 ; 0.0
97 ; 4.43529318245288E7 ; 1.209751563736479E9 ; 4.2213898536846642E9 ; 1.073614878488138E11 ; 0.0
98 ; 4.433116405311548E7 ; 1.2098162816774628E9 ; 4.265742785509193E9 ; 1.0857123941255028E11 ; 0.0
99 ; 4.431811816183175E7 ; 1.2098810617522445E9 ; 4.310073949562308E9 ; 1.0978105569422774E11 ; 0.0
100 ; 4.430344014674865E7 ; 1.2099458976041012E9 ; 4.35439206772414E9 ; 1.1099093675597998E11 ; 0.0
101 ; 4.4281829693216935E7 ; 1.2100107830327275E9 ; 4.398695507870889E9 ; 1.1220088265358408E11 ; 0.0
102 ; 4.4254066656238735E7 ; 1.2100757119888735E9 ; 4.442977337564106E9 ; 1.134108934366168E11 ; 0.0
103 ; 4.424279898640829E7 ; 1.210140678569175E9 ; 4.487231404220345E9 ; 1.1462096914860568E11 ; 0.0
104 ; 4.422418089026201E7 ; 1.2102056770111744E9 ; 4.531474203206753E9 ; 1.1583110982717485E11 ; 0.0
105 ; 4.420218937291694E7 ; 1.2102707016885238E9 ; 4.575698384097014E9 ; 1.1704131550418602E11 ; 0.0
106 ; 4.417750627952635E7 ; 1.2103357471063633E9 ; 4.619900573469932E9 ; 1.1825158620587454E11 ; 0.0
107 ; 4.4151604238760896E7 ; 1.2104008078968735E9 ; 4.664078079749458E9 ; 1.1946192195298091E11 ; 0.0
108 ; 4.413441013173875E7 ; 1.2104658788149862E9 ; 4.708229683988219E9 ; 1.2067232276087778E11 ; 0.0
109 ; 4.411212616723495E7 ; 1.2105309547342622E9 ; 4.752364094119958E9 ; 1.2188278863969276E11 ; 0.0
110 ; 4.408794404568666E7 ; 1.2105960306429157E9 ; 4.796476220287193E9 ; 1.2309331959442703E11 ; 0.0
111 ; 4.40637559632369E7 ; 1.21066110163999E9 ; 4.84056416433288E9 ; 1.2430391562506995E11 ; 0.0
112 ; 4.40430156482317E7 ; 1.2107261629316742E9 ; 4.884627920296117E9 ; 1.2551457672670993E11 ; 0.0
113 ; 4.4015909873716004E7 ; 1.2107912098277586E9 ; 4.928670935944348E9 ; 1.267253028896416E11 ; 0.0
114 ; 4.399543678446519E7 ; 1.2108562377382216E9 ; 4.972686845818065E9 ; 1.2793609409946936E11 ; 0.0
115 ; 4.396547652104558E7 ; 1.2109212421699433E9 ; 5.01668228260253E9 ; 1.2914695033720758E11 ; 0.0
116 ; 4.3940253806232356E7 ; 1.2109862187235436E9 ; 5.060647759123575E9 ; 1.3035787157937752E11 ; 0.0
117 ; 4.391908756584078E7 ; 1.211051163090337E9 ; 5.104588012929808E9 ; 1.3156885779810106E11 ; 0.0
118 ; 4.389492807736337E7 ; 1.2111160710494006E9 ; 5.148507100495648E9 ; 1.3277990896119139E11 ; 0.0
119 ; 4.3868281378260255E7 ; 1.2111809384647534E9 ; 5.192402028573011E9 ; 1.339910250322408E11 ; 0.0
120 ; 4.384686134245965E7 ; 1.2112457612826385E9 ; 5.236270309951272E9 ; 1.3520220597070555E11 ; 0.0
121 ; 4.381526896637745E7 ; 1.2113105355289083E9 ; 5.280117171293732E9 ; 1.3641345173198819E11 ; 0.0
122 ; 4.378177614419175E7 ; 1.2113752573065054E9 ; 5.323932440260109E9 ; 1.376247622675171E11 ; 0.0
123 ; 4.375724111806039E7 ; 1.2114399227930388E9 ; 5.367714216404301E9 ; 1.388361375248236E11 ; 0.0
124 ; 4.3728151212989E7 ; 1.2115045282384481E9 ; 5.411471457522361E9 ; 1.4004757744761664E11 ; 0.0
125 ; 4.37071936611367E7 ; 1.211569069962757E9 ; 5.45519960873535E9 ; 1.4125908197585507E11 ; 0.0
126 ; 4.3671838684147716E7 ; 1.2116335443539047E9 ; 5.498906802396486E9 ; 1.4247065104581784E11 ; 0.0
127 ; 4.364812852759737E7 ; 1.2116979478656654E9 ; 5.542578641080634E9 ; 1.4368228459017175E11 ; 0.0
128 ; 4.3610599385761164E7 ; 1.211762277015636E9 ; 5.586226769608232E9 ; 1.448939825380374E11 ; 0.0
129 ; 4.357834099896324E7 ; 1.2118265283833039E9 ; 5.629837368993993E9 ; 1.4610574481505304E11 ; 0.0
130 ; 4.354400490222607E7 ; 1.2118906986081834E9 ; 5.673415709992956E9 ; 1.4731757134343634E11 ; 0.0
131 ; 4.349965895560172E7 ; 1.211954784388019E9 ; 5.716959714895183E9 ; 1.4852946204204453E11 ; 0.0
132 ; 4.3453893147463806E7 ; 1.2120187824770586E9 ; 5.760459373850784E9 ; 1.4974141682643256E11 ; 0.0
133 ; 4.341477268253647E7 ; 1.2120826896843843E9 ; 5.803913266998248E9 ; 1.509534356089096E11 ; 0.0
134 ; 4.336777513470685E7 ; 1.212146502872308E9 ; 5.847328039680784E9 ; 1.52165518298594E11 ; 0.0
135 ; 4.332171489119083E7 ; 1.2122102189548247E9 ; 5.890695814815491E9 ; 1.533776648014663E11 ; 0.0
136 ; 4.327467894801226E7 ; 1.212273834896119E9 ; 5.934017529706681E9 ; 1.5458987502042114E11 ; 0.0
137 ; 4.322995934252117E7 ; 1.2123373477091298E9 ; 5.977292208654694E9 ; 1.5580214885531726E11 ; 0.0
138 ; 4.3176450735798806E7 ; 1.2124007544541626E9 ; 6.020522167997214E9 ; 1.570144862030264E11 ; 0.0
139 ; 4.3133918046579644E7 ; 1.2124640522375546E9 ; 6.063698618733013E9 ; 1.5822688695748056E11 ; 0.0
140 ; 4.308533734258532E7 ; 1.212527238210386E9 ; 6.1068325367795925E9 ; 1.594393510097181E11 ; 0.0
141 ; 4.3037706248279214E7 ; 1.21259030956724E9 ; 6.149917874122178E9 ; 1.606518782479285E11 ; 0.0
142 ; 4.298229319035404E7 ; 1.212653263545001E9 ; 6.192955580370458E9 ; 1.6186446855749573E11 ; 0.0
143 ; 4.294149110118567E7 ; 1.2127160974217038E9 ; 6.235937873560812E9 ; 1.6307712182104074E11 ; 0.0
144 ; 4.288922517394854E7 ; 1.2127788085154164E9 ; 6.278879364661998E9 ; 1.6428983791846243E11 ; 0.0
145 ; 4.2855204996841535E7 ; 1.2128413941831665E9 ; 6.321768589835946E9 ; 1.6550261672697784E11 ; 0.0
146 ; 4.282914177868573E7 ; 1.212903851819904E9 ; 6.3646237948327875E9 ; 1.66715458121161E11 ; 0.0
147 ; 4.279117586264242E7 ; 1.2129661788575013E9 ; 6.407452936611473E9 ; 1.6792836197298093E11 ; 0.0
148 ; 4.275930951965963E7 ; 1.2130283727637863E9 ; 6.450244112474115E9 ; 1.6914132815183844E11 ; 0.0
149 ; 4.2727398557690725E7 ; 1.2130904310416133E9 ; 6.493003421993775E9 ; 1.7035435652460223E11 ; 0.0
150 ; 4.2686386873414755E7 ; 1.213152351227961E9 ; 6.535730820551466E9 ; 1.7156744695564386E11 ; 0.0
151 ; 4.266347762058702E7 ; 1.213214130893066E9 ; 6.578417207424881E9 ; 1.7278059930687183E11 ; 0.0
152 ; 4.262418428604485E7 ; 1.2132757676395855E9 ; 6.621080685045468E9 ; 1.739938134377649E11 ; 0.0
153 ; 4.259232649224812E7 ; 1.213337259101786E9 ; 6.663704869331513E9 ; 1.7520708920540448E11 ; 0.0
154 ; 4.2552459786657244E7 ; 1.213398602944765E9 ; 6.706297195823762E9 ; 1.7642042646450626E11 ; 0.0
155 ; 4.252333604519544E7 ; 1.2134597968636954E9 ; 6.748849655610419E9 ; 1.7763382506745102E11 ; 0.0
156 ; 4.248471196907513E7 ; 1.2135208385830967E9 ; 6.791372991655615E9 ; 1.7884728486431473E11 ; 0.0
157 ; 4.2455811809417605E7 ; 1.2135817258561318E9 ; 6.83385770362469E9 ; 1.8006080570289783E11 ; 0.0
158 ; 4.241823596600464E7 ; 1.2136424564639277E9 ; 6.876313515434108E9 ; 1.8127438742875397E11 ; 0.0
159 ; 4.237997529879049E7 ; 1.213703028214919E9 ; 6.918731751400112E9 ; 1.824880298852179E11 ; 0.0
160 ; 4.2343069641158335E7 ; 1.213763438944213E9 ; 6.961111726698903E9 ; 1.837017329134328E11 ; 0.0
161 ; 4.2312763700213835E7 ; 1.2138236865129762E9 ; 7.003454796340061E9 ; 1.84915496352377E11 ; 0.0
162 ; 4.228216837836289E7 ; 1.2138837688078442E9 ; 7.045767560040275E9 ; 1.8612932003888998E11 ; 0.0
163 ; 4.224379738653632E7 ; 1.213943683740347E9 ; 7.088049728418637E9 ; 1.873432038076978E11 ; 0.0
164 ; 4.2206735355931774E7 ; 1.2140034292463567E9 ; 7.130293525805174E9 ; 1.8855714749143817E11 ; 0.0
165 ; 4.217273237889742E7 ; 1.214063003285553E9 ; 7.172500261161106E9 ; 1.8977115092068454E11 ; 0.0
166 ; 4.213235169658096E7 ; 1.2141224038409052E9 ; 7.214672993540004E9 ; 1.909852139239701E11 ; 0.0
167 ; 4.2095200235239096E7 ; 1.2141816289181728E9 ; 7.256805345236585E9 ; 1.92199336327811E11 ; 0.0
168 ; 4.206482524419657E7 ; 1.2142406765454226E9 ; 7.298900545471824E9 ; 1.934135179567292E11 ; 0.0
169 ; 4.202707957756769E7 ; 1.21429954477256E9 ; 7.340965370716021E9 ; 1.946277586332746E11 ; 0.0
170 ; 4.1990194636130475E7 ; 1.214358231670879E9 ; 7.382992450293589E9 ; 1.9584205817804715E11 ; 0.0
171 ; 4.1948886350014076E7 ; 1.214416735332622E9 ; 7.424982644929719E9 ; 1.9705641640971802E11 ; 0.0
172 ; 4.191516675074217E7 ; 1.2144750538705606E9 ; 7.466931531279733E9 ; 1.9827083314505063E11 ; 0.0
173 ; 4.1884580410874605E7 ; 1.2145331854175832E9 ; 7.508846698030475E9 ; 1.994853081989212E11 ; 0.0
174 ; 4.186156823521948E7 ; 1.2145911281263006E9 ; 7.550731278441349E9 ; 2.0069984138433878E11 ; 0.0
175 ; 4.183705395465527E7 ; 1.214648880168663E9 ; 7.592592846676569E9 ; 2.019144325124651E11 ; 0.0
176 ; 4.180868048012163E7 ; 1.2147064397355895E9 ; 7.634429900631225E9 ; 2.0312908139263376E11 ; 0.0
177 ; 4.178523338984808E7 ; 1.214763805036609E9 ; 7.676238581111346E9 ; 2.0434378783236935E11 ; 0.0
178 ; 4.176820912689504E7 ; 1.214820974299513E9 ; 7.718023814501194E9 ; 2.0555855163740598E11 ; 0.0
179 ; 4.174088045531348E7 ; 1.2148779457700214E9 ; 7.759792023628089E9 ; 2.0677337261170547E11 ; 0.0
180 ; 4.172331120372315E7 ; 1.2149347177114544E9 ; 7.801532904083403E9 ; 2.079882505574755E11 ; 0.0
181 ; 4.170034151894299E7 ; 1.2149912884044206E9 ; 7.843256215287126E9 ; 2.0920318527518695E11 ; 0.0
182 ; 4.167651075046947E7 ; 1.2150476561465104E9 ; 7.884956556806068E9 ; 2.1041817656359137E11 ; 0.0
183 ; 4.165997478453985E7 ; 1.2151038192520008E9 ; 7.926633067556538E9 ; 2.1163322421973788E11 ; 0.0
184 ; 4.163444119823132E7 ; 1.2151597760515711E9 ; 7.968293042341078E9 ; 2.128483280389899E11 ; 0.0
185 ; 4.160550809740118E7 ; 1.215215524892026E9 ; 8.0099274835393095E9 ; 2.1406348781504147E11 ; 0.0
186 ; 4.157881689841145E7 ; 1.2152710641360264E9 ; 8.051532991636711E9 ; 2.152787033399335E11 ; 0.0
187 ; 4.1565716256848395E7 ; 1.215326392161831E9 ; 8.093111808535123E9 ; 2.1649397440406952E11 ; 0.0
188 ; 4.1537058654400334E7 ; 1.2153815073630445E9 ; 8.134677524791971E9 ; 2.1770930079623135E11 ; 0.0
189 ; 4.151921941926149E7 ; 1.2154364081483746E9 ; 8.176214583446371E9 ; 2.189246823035944E11 ; 0.0
190 ; 4.149683292398597E7 ; 1.2154910929413953E9 ; 8.217733802865633E9 ; 2.2014011871174277E11 ; 0.0
191 ; 4.147325724188402E7 ; 1.21554556018032E9 ; 8.259230635789619E9 ; 2.2135560980468417E11 ; 0.0
192 ; 4.145280469148131E7 ; 1.215599808317778E9 ; 8.300703893031504E9 ; 2.225711553648645E11 ; 0.0
193 ; 4.142797895313451E7 ; 1.2156538358206027E9 ; 8.342156697722985E9 ; 2.2378675517318228E11 ; 0.0
194 ; 4.139547790316589E7 ; 1.2157076411696205E9 ; 8.38358467667612E9 ; 2.250024090090029E11 ; 0.0
195 ; 4.138545968113285E7 ; 1.215761222859452E9 ; 8.424980154579286E9 ; 2.2621811665017252E11 ; 0.0
196 ; 4.136086715965961E7 ; 1.2158145793983166E9 ; 8.466365614260419E9 ; 2.2743387787303198E11 ; 0.0
