CSV File for the Network on Day 224
1 - Minute m 
2 - Power Consumed at minute m 
3 - Power Produced at minute m 
4 - Energy Consumed since the beginning of the day 
5 - Energy Produced since the beginning of the day 
6 - Energy Lost since the beginning of the day 
 
0 ; 2691257.047688937 ; 6.319463816147138E8 ; 0.0 ; 0.0 ; 0.0
1 ; 2731729.893899391 ; 6.328342920374284E8 ; 2691257.047688937 ; 6.319463816147138E8 ; 0.0
2 ; 2779290.7347564846 ; 6.355766950458767E8 ; 5422986.941588327 ; 1.264780673652142E9 ; 0.0
3 ; 2833293.613806381 ; 6.401739147365425E8 ; 8202277.676344812 ; 1.9003573686980188E9 ; 0.0
4 ; 2897773.65922608 ; 6.466262955634029E8 ; 1.1035571290151194E7 ; 2.5405312834345613E9 ; 0.0
5 ; 2969652.1138945534 ; 6.549341931178387E8 ; 1.3933344949377274E7 ; 3.187157578997964E9 ; 0.0
6 ; 3065467.8071414614 ; 6.650979605717641E8 ; 1.6902997063271828E7 ; 3.842091772115803E9 ; 0.0
7 ; 3196840.8980511706 ; 6.771179308839253E8 ; 1.996846487041329E7 ; 4.507189732687567E9 ; 0.0
8 ; 3388906.351599983 ; 6.909943958588505E8 ; 2.316530576846446E7 ; 5.184307663571492E9 ; 0.0
9 ; 3677609.354904077 ; 7.06727584325801E8 ; 2.6554212120064445E7 ; 5.875302059430343E9 ; 0.0
10 ; 4119011.3566633137 ; 7.24317642685996E8 ; 3.0231821474968523E7 ; 6.582029643756144E9 ; 0.0
11 ; 4812054.018430222 ; 7.437646213628383E8 ; 3.435083283163184E7 ; 7.30634728644214E9 ; 0.0
12 ; 5922185.007091612 ; 7.650684699329247E8 ; 3.916288685006206E7 ; 8.050111907804977E9 ; 0.0
13 ; 6992296.588986978 ; 7.882290419950364E8 ; 4.508507185715367E7 ; 8.815180377737902E9 ; 0.0
14 ; 7132103.191134449 ; 8.132461087199125E8 ; 5.207736844614065E7 ; 9.603409419732939E9 ; 0.0
15 ; 7176616.940332752 ; 8.401193783030238E8 ; 5.92094716372751E7 ; 1.041665552845285E10 ; 0.0
16 ; 7235392.131704726 ; 8.688485177856252E8 ; 6.6386088577607855E7 ; 1.1256774906755875E10 ; 0.0
17 ; 7295197.040662851 ; 8.994331739958018E8 ; 7.362148070931259E7 ; 1.21256234245415E10 ; 0.0
18 ; 7349206.309632627 ; 9.318729913421731E8 ; 8.091667774997544E7 ; 1.3025056598537302E10 ; 0.0
19 ; 7410047.047785265 ; 9.661676253707618E8 ; 8.826588405960807E7 ; 1.3956929589879475E10 ; 0.0
20 ; 7463807.636270009 ; 1.0023167519850839E9 ; 9.567593110739334E7 ; 1.4923097215250237E10 ; 0.0
21 ; 7524198.37571088 ; 1.0403200728611537E9 ; 1.0313973874366334E8 ; 1.5925413967235321E10 ; 0.0
22 ; 7581669.718785918 ; 1.0801773178721316E9 ; 1.1066393711937422E8 ; 1.6965734040096476E10 ; 0.0
23 ; 7635448.29298988 ; 1.1218882453697348E9 ; 1.1824560683816013E8 ; 1.804591135796861E10 ; 0.0
24 ; 7693557.857600895 ; 1.1654526410624857E9 ; 1.2588105513115E8 ; 1.9167799603338345E10 ; 0.0
25 ; 7754165.076368744 ; 1.2029985614597397E9 ; 1.335746129887509E8 ; 2.033325224440083E10 ; 0.0
26 ; 7808577.480033241 ; 1.20304712774348E9 ; 1.4132877806511965E8 ; 2.153625080586057E10 ; 0.0
27 ; 7862610.230303111 ; 1.2030968104456885E9 ; 1.491373555451529E8 ; 2.273929793360405E10 ; 0.0
28 ; 7925702.940948516 ; 1.2031474825112689E9 ; 1.56999965775456E8 ; 2.394239474404974E10 ; 0.0
29 ; 7979762.889120849 ; 1.203199032795523E9 ; 1.6492566871640453E8 ; 2.514554222656101E10 ; 0.0
30 ; 8036988.674837228 ; 1.2032513640081751E9 ; 1.7290543160552537E8 ; 2.6348741259356533E10 ; 0.0
31 ; 8086192.741105059 ; 1.2033043908808997E9 ; 1.809424202803626E8 ; 2.7551992623364708E10 ; 0.0
32 ; 8146365.382575947 ; 1.2033580385559862E9 ; 1.8902861302146766E8 ; 2.875529701424561E10 ; 0.0
33 ; 8199133.287283648 ; 1.2034122411826258E9 ; 1.971749784040436E8 ; 2.9958655052801594E10 ; 0.0
34 ; 8247052.294935979 ; 1.2034669407018511E9 ; 2.0537411169132727E8 ; 3.116206729398422E10 ; 0.0
35 ; 8297525.182289831 ; 1.2035220857992115E9 ; 2.1362116398626325E8 ; 3.236553423468607E10 ; 0.0
36 ; 8343923.606765648 ; 1.2035776310043893E9 ; 2.2191868916855308E8 ; 3.3569056320485283E10 ; 0.0
37 ; 8396215.792151429 ; 1.2036335359182496E9 ; 2.3026261277531874E8 ; 3.477263395148967E10 ; 0.0
38 ; 8440562.482049229 ; 1.2036897645496159E9 ; 2.3865882856747016E8 ; 3.597626748740792E10 ; 0.0
39 ; 8482403.881743215 ; 1.2037462847461028E9 ; 2.470993910495194E8 ; 3.7179957251957535E10 ; 0.0
40 ; 8525366.21487024 ; 1.2038030677053075E9 ; 2.555817949312626E8 ; 3.8383703536703636E10 ; 0.0
41 ; 8573878.946907818 ; 1.2038600875545547E9 ; 2.6410716114613286E8 ; 3.958750660440894E10 ; 0.0
42 ; 8611384.102658441 ; 1.2039173209890566E9 ; 2.726810400930407E8 ; 4.07913666919635E10 ; 0.0
43 ; 8646964.121556494 ; 1.2039747469598596E9 ; 2.8129242419569916E8 ; 4.199528401295256E10 ; 0.0
44 ; 8687765.932049572 ; 1.2040323464042282E9 ; 2.899393883172557E8 ; 4.319925875991242E10 ; 0.0
45 ; 8720999.277686942 ; 1.2040901020122464E9 ; 2.9862715424930525E8 ; 4.440329110631665E10 ; 0.0
46 ; 8753977.48876681 ; 1.2041479980243483E9 ; 3.073481535269922E8 ; 4.5607381208328896E10 ; 0.0
47 ; 8783039.326928608 ; 1.2042060200553212E9 ; 3.16102131015759E8 ; 4.681152920635324E10 ; 0.0
48 ; 8811275.555764792 ; 1.2042641549409838E9 ; 3.248851703426876E8 ; 4.801573522640856E10 ; 0.0
49 ; 8844346.224641472 ; 1.2043223906043315E9 ; 3.336964458984524E8 ; 4.921999938134955E10 ; 0.0
50 ; 8865429.409664327 ; 1.2043807159384282E9 ; 3.4254079212309384E8 ; 5.042432177195388E10 ; 0.0
51 ; 8895505.218896378 ; 1.2044391207037227E9 ; 3.514062215327582E8 ; 5.162870248789231E10 ; 0.0
52 ; 8913962.25784683 ; 1.204497595437826E9 ; 3.6030172675165457E8 ; 5.283314160859603E10 ; 0.0
53 ; 8939845.860440198 ; 1.204556131376065E9 ; 3.692156890095014E8 ; 5.403763920403386E10 ; 0.0
54 ; 8962442.102582412 ; 1.2046147203813853E9 ; 3.781555348699416E8 ; 5.524219533540993E10 ; 0.0
55 ; 8987456.654920988 ; 1.2046733548823686E9 ; 3.87117976972524E8 ; 5.644681005579131E10 ; 0.0
56 ; 9009226.179928508 ; 1.2047320278183231E9 ; 3.96105433627445E8 ; 5.765148341067368E10 ; 0.0
57 ; 9027313.611854628 ; 1.204790732590539E9 ; 4.0511465980737346E8 ; 5.8856215438492004E10 ; 0.0
58 ; 9051207.728283267 ; 1.2048494630189326E9 ; 4.141419734192281E8 ; 6.006100617108254E10 ; 0.0
59 ; 9073459.45776502 ; 1.2049082133034143E9 ; 4.2319318114751136E8 ; 6.126585563410148E10 ; 0.0
60 ; 9096640.898478106 ; 1.2049669779894001E9 ; 4.322666406052764E8 ; 6.247076384740489E10 ; 0.0
61 ; 9122507.032678142 ; 1.2050257519369643E9 ; 4.413632815037545E8 ; 6.3675730825394295E10 ; 0.0
62 ; 9137857.482017495 ; 1.2050845302932057E9 ; 4.504857885364326E8 ; 6.488075657733126E10 ; 0.0
63 ; 9157459.575623719 ; 1.2051433084674466E9 ; 4.5962364601845014E8 ; 6.6085841107624466E10 ; 0.0
64 ; 9173690.880022481 ; 1.205202082108934E9 ; 4.6878110559407383E8 ; 6.729098441609191E10 ; 0.0
65 ; 9199469.310631322 ; 1.2052608470867667E9 ; 4.779547964740963E8 ; 6.849618649820084E10 ; 0.0
66 ; 9214544.213660046 ; 1.2053195994717884E9 ; 4.8715426578472763E8 ; 6.970144734528761E10 ; 0.0
67 ; 9243117.132339377 ; 1.205378335520233E9 ; 4.963688099983877E8 ; 7.09067669447594E10 ; 0.0
68 ; 9258169.556866862 ; 1.2054370516589286E9 ; 5.0561192713072705E8 ; 7.211214528027963E10 ; 0.0
69 ; 9278876.44513476 ; 1.2054957444718971E9 ; 5.1487009668759394E8 ; 7.331758233193857E10 ; 0.0
70 ; 9297862.59422383 ; 1.2055544106881902E9 ; 5.241489731327287E8 ; 7.452307807641046E10 ; 0.0
71 ; 9314258.89928461 ; 1.2056130471708434E9 ; 5.3344683572695255E8 ; 7.572863248709865E10 ; 0.0
72 ; 9336444.733218238 ; 1.2056716509068234E9 ; 5.427610946262372E8 ; 7.693424553426949E10 ; 0.0
73 ; 9346500.861946326 ; 1.2057302189978724E9 ; 5.520975393594553E8 ; 7.813991718517632E10 ; 0.0
74 ; 9369099.444396233 ; 1.2057887486521554E9 ; 5.614440402214017E8 ; 7.93456474041742E10 ; 0.0
75 ; 9386313.80822062 ; 1.2058472371766322E9 ; 5.70813139665798E8 ; 8.055143615282635E10 ; 0.0
76 ; 9402894.732290955 ; 1.205905681970082E9 ; 5.801994534740186E8 ; 8.175728339000299E10 ; 0.0
77 ; 9425090.155367922 ; 1.205964080516718E9 ; 5.896023482063096E8 ; 8.296318907197307E10 ; 0.0
78 ; 9427937.964073705 ; 1.2060224303803334E9 ; 5.990274383616775E8 ; 8.416915315248979E10 ; 0.0
79 ; 9431189.10961584 ; 1.2060807291989312E9 ; 6.084553763257512E8 ; 8.537517558287013E10 ; 0.0
80 ; 9432600.56352981 ; 1.2061389746797895E9 ; 6.17886565435367E8 ; 8.658125631206906E10 ; 0.0
81 ; 9436928.482905678 ; 1.206197164594925E9 ; 6.273191659988968E8 ; 8.778739528674886E10 ; 0.0
82 ; 9439386.22080251 ; 1.2062552967769141E9 ; 6.367560944818025E8 ; 8.899359245134378E10 ; 0.0
83 ; 9439259.65416597 ; 1.2063133691150465E9 ; 6.46195480702605E8 ; 9.01998477481207E10 ; 0.0
84 ; 9443841.240071764 ; 1.2063713795517707E9 ; 6.55634740356771E8 ; 9.140616111723575E10 ; 0.0
85 ; 9440717.359765599 ; 1.2064293260794199E9 ; 6.650785815968428E8 ; 9.261253249678752E10 ; 0.0
86 ; 9446307.483712718 ; 1.2064872067371778E9 ; 6.745192989566084E8 ; 9.381896182286694E10 ; 0.0
87 ; 9445386.974097975 ; 1.2065450196082776E9 ; 6.839656064403211E8 ; 9.502544902960413E10 ; 0.0
88 ; 9452126.215066323 ; 1.2066027628174062E9 ; 6.93410993414419E8 ; 9.62319940492124E10 ; 0.0
89 ; 9447459.194605269 ; 1.2066604345283E9 ; 7.028631196294854E8 ; 9.743859681202982E10 ; 0.0
90 ; 9447730.699444829 ; 1.206718032941512E9 ; 7.123105788240906E8 ; 9.864525724655812E10 ; 0.0
91 ; 9448445.404048825 ; 1.2067755562923439E9 ; 7.217583095235354E8 ; 9.985197527949963E10 ; 0.0
92 ; 9446835.532890117 ; 1.206833002848919E9 ; 7.312067549275842E8 ; 1.0105875083579198E11 ; 0.0
93 ; 9444196.19456653 ; 1.2068903709103966E9 ; 7.406535904604743E8 ; 1.022655838386409E11 ; 0.0
94 ; 9447874.91571406 ; 1.2069476588053057E9 ; 7.500977866550407E8 ; 1.034724742095513E11 ; 0.0
95 ; 9451780.550144285 ; 1.2070048648899963E9 ; 7.595456615707548E8 ; 1.0467942186835661E11 ; 0.0
96 ; 9448116.028391175 ; 1.2070619875471942E9 ; 7.689974421208991E8 ; 1.0588642673324661E11 ; 0.0
97 ; 9445999.908233248 ; 1.2071190251846561E9 ; 7.784455581492902E8 ; 1.0709348872079381E11 ; 0.0
98 ; 9440831.454148784 ; 1.20717597623391E9 ; 7.878915580575235E8 ; 1.0830060774597847E11 ; 0.0
99 ; 9443420.604486529 ; 1.207232839149085E9 ; 7.973323895116723E8 ; 1.0950778372221239E11 ; 0.0
100 ; 9442884.501414496 ; 1.207289612405813E9 ; 8.067758101161588E8 ; 1.1071501656136147E11 ; 0.0
101 ; 9431148.333852075 ; 1.2073462945002027E9 ; 8.162186946175734E8 ; 1.1192230617376727E11 ; 0.0
102 ; 9428236.588408578 ; 1.2074028839478824E9 ; 8.256498429514254E8 ; 1.1312965246826747E11 ; 0.0
103 ; 9428601.606123012 ; 1.2074593792831006E9 ; 8.35078079539834E8 ; 1.1433705535221535E11 ; 0.0
104 ; 9429412.219033953 ; 1.2075157790578852E9 ; 8.44506681145957E8 ; 1.1554451473149844E11 ; 0.0
105 ; 9423652.352406219 ; 1.2075720818412552E9 ; 8.53936093364991E8 ; 1.1675203051055634E11 ; 0.0
106 ; 9413341.043263068 ; 1.2076282862184818E9 ; 8.633597457173972E8 ; 1.1795960259239758E11 ; 0.0
107 ; 9413204.887385033 ; 1.2076843907903936E9 ; 8.727730867606603E8 ; 1.1916723087861606E11 ; 0.0
108 ; 9405600.100604732 ; 1.2077403941727276E9 ; 8.821862916480453E8 ; 1.2037491526940645E11 ; 0.0
109 ; 9404748.628998833 ; 1.2077962949955149E9 ; 8.915918917486501E8 ; 1.2158265566357918E11 ; 0.0
110 ; 9393813.846170286 ; 1.207852091902508E9 ; 9.00996640377649E8 ; 1.2279045195857469E11 ; 0.0
111 ; 9398927.947955122 ; 1.2079077835506396E9 ; 9.103904542238193E8 ; 1.239983040504772E11 ; 0.0
112 ; 9388342.732427005 ; 1.2079633686095147E9 ; 9.197893821717744E8 ; 1.2520621183402785E11 ; 0.0
113 ; 9379904.95121594 ; 1.2080188457609324E9 ; 9.291777249042014E8 ; 1.2641417520263736E11 ; 0.0
114 ; 9372480.75712022 ; 1.208074213698435E9 ; 9.385576298554174E8 ; 1.2762219404839828E11 ; 0.0
115 ; 9364125.526466921 ; 1.208129471126885E9 ; 9.479301106125376E8 ; 1.2883026826209673E11 ; 0.0
116 ; 9360490.698701935 ; 1.2081846167620647E9 ; 9.572942361390046E8 ; 1.3003839773322362E11 ; 0.0
117 ; 9356876.085510135 ; 1.2082396493303E9 ; 9.666547268377066E8 ; 1.3124658234998569E11 ; 0.0
118 ; 9343010.020482423 ; 1.2082945675681064E9 ; 9.760116029232167E8 ; 1.32454821999316E11 ; 0.0
119 ; 9332726.140196789 ; 1.2083493702218509E9 ; 9.853546129436991E8 ; 1.336631165668841E11 ; 0.0
120 ; 9330695.474696286 ; 1.2084040560474403E9 ; 9.946873390838959E8 ; 1.3487146593710594E11 ; 0.0
121 ; 9321712.222162426 ; 1.208458623810019E9 ; 1.0040180345585922E9 ; 1.3607986999315338E11 ; 0.0
122 ; 9310939.385553068 ; 1.2085130722836897E9 ; 1.0133397467807546E9 ; 1.372883286169634E11 ; 0.0
123 ; 9302340.329744592 ; 1.2085674002512476E9 ; 1.0226506861663077E9 ; 1.3849684168924707E11 ; 0.0
124 ; 9292089.868500356 ; 1.2086216065039268E9 ; 1.0319530264960523E9 ; 1.3970540908949832E11 ; 0.0
125 ; 9285226.109988451 ; 1.2086756898411646E9 ; 1.0412451163645526E9 ; 1.4091403069600226E11 ; 0.0
126 ; 9273688.039757162 ; 1.2087296490703769E9 ; 1.0505303424745411E9 ; 1.421227063858434E11 ; 0.0
127 ; 9262627.29770934 ; 1.2087834830067458E9 ; 1.0598040305142982E9 ; 1.433314360349138E11 ; 0.0
128 ; 9250444.743570656 ; 1.2088371904730184E9 ; 1.0690666578120075E9 ; 1.4454021951792053E11 ; 0.0
129 ; 9247832.204843225 ; 1.208890770299317E9 ; 1.0783171025555782E9 ; 1.4574905670839355E11 ; 0.0
130 ; 9227851.09275195 ; 1.20894422132296E9 ; 1.0875649347604215E9 ; 1.4695794747869287E11 ; 0.0
131 ; 9201082.561199423 ; 1.2089975423882916E9 ; 1.0967927858531735E9 ; 1.4816689170001584E11 ; 0.0
132 ; 9178030.2954152 ; 1.2090507323465211E9 ; 1.105993868414373E9 ; 1.4937588924240414E11 ; 0.0
133 ; 9155422.897402102 ; 1.2091037900555706E9 ; 1.115171898709788E9 ; 1.5058493997475067E11 ; 0.0
134 ; 9127563.499441624 ; 1.2091567143799295E9 ; 1.1243273216071901E9 ; 1.5179404376480624E11 ; 0.0
135 ; 9099226.807033164 ; 1.20920950419052E9 ; 1.1334548851066318E9 ; 1.530032004791862E11 ; 0.0
136 ; 9073407.648661774 ; 1.2092621583645678E9 ; 1.1425541119136648E9 ; 1.542124099833767E11 ; 0.0
137 ; 9050678.356685577 ; 1.2093146757854774E9 ; 1.1516275195623267E9 ; 1.5542167214174127E11 ; 0.0
138 ; 9023962.075700855 ; 1.2093670553427186E9 ; 1.1606781979190123E9 ; 1.5663098681752676E11 ; 0.0
139 ; 8998531.67125832 ; 1.2094192959317153E9 ; 1.169702159994713E9 ; 1.5784035387286948E11 ; 0.0
140 ; 8968903.605597071 ; 1.2094713964537425E9 ; 1.1787006916659713E9 ; 1.5904977316880118E11 ; 0.0
141 ; 8943377.909216437 ; 1.2095233558158274E9 ; 1.1876695952715683E9 ; 1.602592445652549E11 ; 0.0
142 ; 8917652.193065766 ; 1.2095751729306552E9 ; 1.1966129731807847E9 ; 1.6146876792107074E11 ; 0.0
143 ; 8888843.146245133 ; 1.2096268467164829E9 ; 1.2055306253738506E9 ; 1.626783430940014E11 ; 0.0
144 ; 8859204.352785204 ; 1.209678376097053E9 ; 1.2144194685200958E9 ; 1.638879699407179E11 ; 0.0
145 ; 8848693.349234821 ; 1.2097297600015168E9 ; 1.223278672872881E9 ; 1.6509764831681494E11 ; 0.0
146 ; 8837378.28681616 ; 1.2097809973643572E9 ; 1.2321273662221158E9 ; 1.6630737807681647E11 ; 0.0
147 ; 8829830.041298594 ; 1.20983208712532E9 ; 1.2409647445089319E9 ; 1.6751715907418082E11 ; 0.0
148 ; 8818896.682999449 ; 1.2098830282293441E9 ; 1.2497945745502305E9 ; 1.6872699116130612E11 ; 0.0
149 ; 8798689.641217485 ; 1.2099338196265E9 ; 1.2586134712332299E9 ; 1.6993687418953546E11 ; 0.0
150 ; 8795421.749398265 ; 1.2099844602719283E9 ; 1.2674121608744473E9 ; 1.7114680800916196E11 ; 0.0
151 ; 8783451.462612351 ; 1.210034949125784E9 ; 1.2762075826238456E9 ; 1.723567924694339E11 ; 0.0
152 ; 8771132.399020132 ; 1.2100852851531806E9 ; 1.284991034086458E9 ; 1.735668274185597E11 ; 0.0
153 ; 8757975.797210092 ; 1.210135467324142E9 ; 1.2937621664854782E9 ; 1.7477691270371286E11 ; 0.0
154 ; 8747625.71014783 ; 1.2101854946135514E9 ; 1.3025201422826881E9 ; 1.75987048171037E11 ; 0.0
155 ; 8736735.304371208 ; 1.2102353660011082E9 ; 1.311267767992836E9 ; 1.7719723366565054E11 ; 0.0
156 ; 8723304.385598572 ; 1.210285080471284E9 ; 1.320004503297207E9 ; 1.7840746903165164E11 ; 0.0
157 ; 8715959.661634486 ; 1.2103346370132816E9 ; 1.3287278076828058E9 ; 1.7961775411212292E11 ; 0.0
158 ; 8701554.16276885 ; 1.2103840346209984E9 ; 1.3374437673444402E9 ; 1.808280887491362E11 ; 0.0
159 ; 8685879.470548369 ; 1.2104332722929888E9 ; 1.346145321507209E9 ; 1.820384727837572E11 ; 0.0
160 ; 8677593.330474671 ; 1.2104823490324304E9 ; 1.3548312009777575E9 ; 1.832489060560502E11 ; 0.0
161 ; 8666595.639703862 ; 1.2105312638470929E9 ; 1.363508794308232E9 ; 1.8445938840508264E11 ; 0.0
162 ; 8650836.974019688 ; 1.2105800157493076E9 ; 1.3721753899479358E9 ; 1.8566991966892975E11 ; 0.0
163 ; 8638508.298611894 ; 1.210628603755938E9 ; 1.3808262269219556E9 ; 1.8688049968467905E11 ; 0.0
164 ; 8630896.320067482 ; 1.2106770268883562E9 ; 1.3894647352205675E9 ; 1.88091128288435E11 ; 0.0
165 ; 8616078.95673229 ; 1.2107252841724133E9 ; 1.3980956315406349E9 ; 1.8930180531532336E11 ; 0.0
166 ; 8606150.187958272 ; 1.2107733746384206E9 ; 1.4067117104973671E9 ; 1.905125305994958E11 ; 0.0
167 ; 8592973.641593324 ; 1.2108212973211255E9 ; 1.4153178606853254E9 ; 1.9172330397413422E11 ; 0.0
168 ; 8580852.04962303 ; 1.2108690512596908E9 ; 1.4239108343269186E9 ; 1.9293412527145535E11 ; 0.0
169 ; 8570663.283399567 ; 1.2109166354976761E9 ; 1.4324916863765416E9 ; 1.9414499432271506E11 ; 0.0
170 ; 8560952.860068522 ; 1.2109640490830207E9 ; 1.4410623496599412E9 ; 1.9535591095821274E11 ; 0.0
171 ; 8543764.816267364 ; 1.211011291068025E9 ; 1.4496233025200098E9 ; 1.9656687500729575E11 ; 0.0
172 ; 8537195.338920463 ; 1.2110583605093381E9 ; 1.458167067336277E9 ; 1.9777788629836377E11 ; 0.0
173 ; 8523549.61706285 ; 1.2111052564679403E9 ; 1.4667042626751974E9 ; 1.989889446588731E11 ; 0.0
174 ; 8514375.328223957 ; 1.2111519780091324E9 ; 1.4752278122922602E9 ; 2.0020004991534103E11 ; 0.0
175 ; 8505698.860964725 ; 1.2111985242025216E9 ; 1.483742187620484E9 ; 2.0141120189335016E11 ; 0.0
176 ; 8492820.538092624 ; 1.2112448941220124E9 ; 1.492247886481449E9 ; 2.0262240041755267E11 ; 0.0
177 ; 8493699.832191797 ; 1.2112910868457944E9 ; 1.5007407070195415E9 ; 2.0383364531167468E11 ; 0.0
178 ; 8483126.221245421 ; 1.2113371014563339E9 ; 1.5092344068517332E9 ; 2.0504493639852048E11 ; 0.0
179 ; 8468291.428814987 ; 1.211382937040366E9 ; 1.5177175330729787E9 ; 2.062562734999768E11 ; 0.0
180 ; 8465966.98625273 ; 1.2114285926888845E9 ; 1.5261858245017936E9 ; 2.0746765643701718E11 ; 0.0
181 ; 8454822.216266783 ; 1.2114740674971387E9 ; 1.5346517914880464E9 ; 2.0867908502970605E11 ; 0.0
182 ; 8448806.94620343 ; 1.2115193605646245E9 ; 1.5431066137043133E9 ; 2.098905590972032E11 ; 0.0
183 ; 8440789.884601649 ; 1.211564470995079E9 ; 1.5515554206505167E9 ; 2.1110207845776782E11 ; 0.0
184 ; 8434916.662118532 ; 1.2116093978964777E9 ; 1.5599962105351183E9 ; 2.123136429287629E11 ; 0.0
185 ; 8426680.247382097 ; 1.2116541403810287E9 ; 1.5684311271972368E9 ; 2.135252523266594E11 ; 0.0
186 ; 8423616.939987851 ; 1.2116986975651696E9 ; 1.576857807444619E9 ; 2.1473690646704044E11 ; 0.0
187 ; 8410907.768053586 ; 1.211743068569565E9 ; 1.5852814243846068E9 ; 2.159486051646056E11 ; 0.0
188 ; 8400882.863860765 ; 1.2117872525191045E9 ; 1.5936923321526604E9 ; 2.1716034823317517E11 ; 0.0
189 ; 8395116.22813278 ; 1.2118312485428998E9 ; 1.6020932150165212E9 ; 2.1837213548569427E11 ; 0.0
190 ; 8382544.46797641 ; 1.211875055774285E9 ; 1.610488331244654E9 ; 2.1958396673423718E11 ; 0.0
191 ; 8382382.4503782 ; 1.2119186733508139E9 ; 1.6188708757126303E9 ; 2.2079584179001147E11 ; 0.0
192 ; 8366634.755044773 ; 1.2119621004142618E9 ; 1.6272532581630085E9 ; 2.2200776046336227E11 ; 0.0
193 ; 8363933.976952409 ; 1.2120053361106253E9 ; 1.6356198929180532E9 ; 2.2321972256377655E11 ; 0.0
194 ; 8352432.512253232 ; 1.212048379590121E9 ; 1.6439838268950055E9 ; 2.2443172789988718E11 ; 0.0
195 ; 8344804.655358592 ; 1.2120912300071898E9 ; 1.6523362594072587E9 ; 2.256437762794773E11 ; 0.0
196 ; 8336409.676060384 ; 1.2121338865204957E9 ; 1.6606810640626173E9 ; 2.268558675094845E11 ; 0.0
197 ; 8329015.177230392 ; 1.2121763482929287E9 ; 1.6690174737386777E9 ; 2.28068001396005E11 ; 0.0
198 ; 8322187.050799813 ; 1.2122186144916072E9 ; 1.677346488915908E9 ; 2.2928017774429794E11 ; 0.0
199 ; 8311586.673918058 ; 1.2122606842878804E9 ; 1.685668675966708E9 ; 2.3049239635878955E11 ; 0.0
200 ; 8301912.7061037775 ; 1.2123025568573303E9 ; 1.693980262640626E9 ; 2.3170465704307742E11 ; 0.0
201 ; 8295216.539714361 ; 1.143834056121069E9 ; 1.7022821753467298E9 ; 2.3291695959993475E11 ; 0.0
