CSV File for the Network on Day 356
1 - Minute m 
2 - Power Consumed at minute m 
3 - Power Produced at minute m 
4 - Energy Consumed since the beginning of the day 
5 - Energy Produced since the beginning of the day 
6 - Energy Lost since the beginning of the day 
 
0 ; 3.8532870052811064E7 ; 6.346148773305882E8 ; 0.0 ; 0.0 ; 0.0
1 ; 3.857986587392555E7 ; 6.355253602086914E8 ; 3.8532870052811064E7 ; 6.346148773305882E8 ; 0.0
2 ; 3.862304999703126E7 ; 6.382892614639431E8 ; 7.711273592673662E7 ; 1.2701402375392795E9 ; 0.0
3 ; 3.867397873914098E7 ; 6.429066002475097E8 ; 1.1573578592376788E8 ; 1.9084294990032225E9 ; 0.0
4 ; 3.872334571451703E7 ; 6.49377393765622E8 ; 1.5440976466290885E8 ; 2.5513360992507324E9 ; 0.0
5 ; 3.879725535550233E7 ; 6.577016571697093E8 ; 1.9313311037742588E8 ; 3.2007134930163546E9 ; 0.0
6 ; 3.888704204359187E7 ; 6.67879403457492E8 ; 2.3193036573292822E8 ; 3.858415150186064E9 ; 0.0
7 ; 3.90142006052283E7 ; 6.79910643386518E8 ; 2.708174077765201E8 ; 4.526294553643556E9 ; 0.0
8 ; 3.9203896964351416E7 ; 6.937953854014648E8 ; 3.098316083817484E8 ; 5.206205197030073E9 ; 0.0
9 ; 3.947864359137888E7 ; 7.095336355763464E8 ; 3.490355053460998E8 ; 5.900000582431538E9 ; 0.0
10 ; 3.9914745626794405E7 ; 7.271253975725507E8 ; 3.8851414893747866E8 ; 6.609534218007884E9 ; 0.0
11 ; 4.060483482312937E7 ; 7.465706726133838E8 ; 4.2842889456427306E8 ; 7.336659615580435E9 ; 0.0
12 ; 4.170544955224432E7 ; 7.678694594755391E8 ; 4.690337293874024E8 ; 8.083230288193819E9 ; 0.0
13 ; 4.277016253750157E7 ; 7.910217544976292E8 ; 5.107391789396467E8 ; 8.851099747669357E9 ; 0.0
14 ; 4.290923178575818E7 ; 8.160275516056402E8 ; 5.535093414771483E8 ; 9.642121502166986E9 ; 0.0
15 ; 4.295438797231393E7 ; 8.428868423548944E8 ; 5.964185732629064E8 ; 1.0458149053772627E10 ; 0.0
16 ; 4.299792082472809E7 ; 8.715996159878442E8 ; 6.393729612352203E8 ; 1.1301035896127522E10 ; 0.0
17 ; 4.305515053208414E7 ; 9.021658595067691E8 ; 6.823708820599484E8 ; 1.2172635512115366E10 ; 0.0
18 ; 4.310527479441865E7 ; 9.345855577602396E8 ; 7.254260325920326E8 ; 1.3074801371622135E10 ; 0.0
19 ; 4.315671789580576E7 ; 9.688586935420247E8 ; 7.685313073864512E8 ; 1.4009386929382374E10 ; 0.0
20 ; 4.320006971344021E7 ; 1.0049852477009584E9 ; 8.11688025282257E8 ; 1.4978245622924398E10 ; 0.0
21 ; 4.3250998797435105E7 ; 1.0429651992601857E9 ; 8.548880949956971E8 ; 1.5983230870625357E10 ; 0.0
22 ; 4.330451952407758E7 ; 1.0827985255441236E9 ; 8.981390937931323E8 ; 1.7026196069885542E10 ; 0.0
23 ; 4.335029274878307E7 ; 1.1244852023114457E9 ; 9.414436133172098E8 ; 1.8108994595429665E10 ; 0.0
24 ; 4.340202875542085E7 ; 1.1680252038924017E9 ; 9.84793906065993E8 ; 1.923347979774111E10 ; 0.0
25 ; 4.345141097129309E7 ; 1.2055467487179217E9 ; 1.0281959348214138E9 ; 2.0401505001633514E10 ; 0.0
26 ; 4.350461620938575E7 ; 1.2055710956821005E9 ; 1.0716473457927068E9 ; 2.1607051750351437E10 ; 0.0
27 ; 4.355071718466997E7 ; 1.205596831432346E9 ; 1.1151519620020926E9 ; 2.281262284603354E10 ; 0.0
28 ; 4.360082178099974E7 ; 1.205623925988996E9 ; 1.1587026791867626E9 ; 2.4018219677465885E10 ; 0.0
29 ; 4.364536808768797E7 ; 1.2056523486407948E9 ; 1.2023035009677622E9 ; 2.522384360345488E10 ; 0.0
30 ; 4.369418531269218E7 ; 1.205682068076829E9 ; 1.2459488690554502E9 ; 2.6429495952095673E10 ; 0.0
31 ; 4.3742413572800145E7 ; 1.2057130525134614E9 ; 1.2896430543681424E9 ; 2.76351780201725E10 ; 0.0
32 ; 4.379380590943697E7 ; 1.2057452698154745E9 ; 1.3333854679409425E9 ; 2.8840891072685963E10 ; 0.0
33 ; 4.383826038554934E7 ; 1.2057786876107993E9 ; 1.3771792738503795E9 ; 3.004663634250144E10 ; 0.0
34 ; 4.387958596575482E7 ; 1.2058132733983335E9 ; 1.4210175342359288E9 ; 3.1252415030112236E10 ; 0.0
35 ; 4.391845467557634E7 ; 1.20584899464851E9 ; 1.4648971202016835E9 ; 3.245822830351057E10 ; 0.0
36 ; 4.395920909318188E7 ; 1.2058858188963928E9 ; 1.50881557487726E9 ; 3.366407729815908E10 ; 0.0
37 ; 4.3991609864013955E7 ; 1.205923713827197E9 ; 1.5527747839704418E9 ; 3.486996311705547E10 ; 0.0
38 ; 4.403271081506762E7 ; 1.2059626473542333E9 ; 1.5967663938344557E9 ; 3.607588683088267E10 ; 0.0
39 ; 4.407113765420348E7 ; 1.2060025876893687E9 ; 1.6407991046495233E9 ; 3.72818494782369E10 ; 0.0
40 ; 4.410942819446184E7 ; 1.2060435034061735E9 ; 1.6848702423037267E9 ; 3.848785206592627E10 ; 0.0
41 ; 4.4135755556437984E7 ; 1.2060853634959865E9 ; 1.7289796704981885E9 ; 3.969389556933244E10 ; 0.0
42 ; 4.4167184159387365E7 ; 1.2061281374171832E9 ; 1.7731154260546265E9 ; 4.089998093282843E10 ; 0.0
43 ; 4.419632274592834E7 ; 1.2061717951379795E9 ; 1.8172826102140138E9 ; 4.210610907024561E10 ; 0.0
44 ; 4.422011214108452E7 ; 1.2062163071731193E9 ; 1.861478932959942E9 ; 4.331228086538359E10 ; 0.0
45 ; 4.4248827691479646E7 ; 1.2062616446148343E9 ; 1.9056990451010265E9 ; 4.451849717255671E10 ; 0.0
46 ; 4.427284348663999E7 ; 1.2063077791584613E9 ; 1.9499478727925062E9 ; 4.572475881717155E10 ; 0.0
47 ; 4.429206712047997E7 ; 1.206354683123115E9 ; 1.9942207162791462E9 ; 4.693106659633001E10 ; 0.0
48 ; 4.430777795178836E7 ; 1.2064023294678123E9 ; 2.0385127833996263E9 ; 4.8137421279453125E10 ; 0.0
49 ; 4.4330417333138786E7 ; 1.2064506918034391E9 ; 2.0828205613514147E9 ; 4.934382360892094E10 ; 0.0
50 ; 4.433943523797704E7 ; 1.2064997444009387E9 ; 2.1271509786845534E9 ; 5.055027430072437E10 ; 0.0
51 ; 4.4361571474368714E7 ; 1.206549462196086E9 ; 2.1714904139225307E9 ; 5.175677404512531E10 ; 0.0
52 ; 4.437424651958172E7 ; 1.2065998207912014E9 ; 2.215851985396899E9 ; 5.2963323507321396E10 ; 0.0
53 ; 4.437954440871407E7 ; 1.206650796454134E9 ; 2.260226231916481E9 ; 5.4169923328112595E10 ; 0.0
54 ; 4.439594338221265E7 ; 1.2067023661148243E9 ; 2.3046057763251953E9 ; 5.537657412456673E10 ; 0.0
55 ; 4.439995487476346E7 ; 1.206754507359744E9 ; 2.349001719707408E9 ; 5.658327649068155E10 ; 0.0
56 ; 4.441965386657272E7 ; 1.206807198424481E9 ; 2.3934016745821714E9 ; 5.779003099804129E10 ; 0.0
57 ; 4.442796151529285E7 ; 1.2068604181847208E9 ; 2.4378213284487443E9 ; 5.8996838196465775E10 ; 0.0
58 ; 4.4439421284809865E7 ; 1.2069141461458578E9 ; 2.482249289964037E9 ; 6.02036986146505E10 ; 0.0
59 ; 4.4443880263157025E7 ; 1.2069683624314451E9 ; 2.526688711248847E9 ; 6.141061276079636E10 ; 0.0
60 ; 4.445467435936052E7 ; 1.2070230477706776E9 ; 2.571132591512004E9 ; 6.26175811232278E10 ; 0.0
61 ; 4.446856486992369E7 ; 1.207078183485081E9 ; 2.6155872658713646E9 ; 6.3824604170998474E10 ; 0.0
62 ; 4.4481257021488495E7 ; 1.2071337514745653E9 ; 2.660055830741288E9 ; 6.503168235448356E10 ; 0.0
63 ; 4.44908847352045E7 ; 1.2071897342029831E9 ; 2.704537087762777E9 ; 6.623881610595812E10 ; 0.0
64 ; 4.449533901809631E7 ; 1.207246114683319E9 ; 2.7490279724979815E9 ; 6.74460058401611E10 ; 0.0
65 ; 4.449971761294311E7 ; 1.2073028764626231E9 ; 2.793523311516078E9 ; 6.865325195484442E10 ; 0.0
66 ; 4.4510114046143845E7 ; 1.2073600036067846E9 ; 2.838023029129021E9 ; 6.986055483130704E10 ; 0.0
67 ; 4.452088746990605E7 ; 1.207417480685238E9 ; 2.882533143175165E9 ; 7.106791483491382E10 ; 0.0
68 ; 4.453241535414614E7 ; 1.2074752927556725E9 ; 2.927054030645071E9 ; 7.227533231559906E10 ; 0.0
69 ; 4.452965447780642E7 ; 1.2075334253488169E9 ; 2.971586445999217E9 ; 7.348280760835474E10 ; 0.0
70 ; 4.45389577313034E7 ; 1.207591864453349E9 ; 3.0161161004770236E9 ; 7.469034103370355E10 ; 0.0
71 ; 4.455325352215958E7 ; 1.2076505965009902E9 ; 3.060655058208327E9 ; 7.58979328981569E10 ; 0.0
72 ; 4.454991694020169E7 ; 1.2077096083518133E9 ; 3.1052083117304864E9 ; 7.71055834946579E10 ; 0.0
73 ; 4.455198995606115E7 ; 1.2077688872798123E9 ; 3.149758228670688E9 ; 7.83132931030097E10 ; 0.0
74 ; 4.456467511196516E7 ; 1.2078284209587517E9 ; 3.1943102186267495E9 ; 7.952106199028952E10 ; 0.0
75 ; 4.4561383827100135E7 ; 1.2078881974483275E9 ; 3.2388748937387147E9 ; 8.072889041124828E10 ; 0.0
76 ; 4.4565798864507005E7 ; 1.2079482051806533E9 ; 3.283436277565815E9 ; 8.193677860869661E10 ; 0.0
77 ; 4.455877027685675E7 ; 1.2080084329470906E9 ; 3.328002076430322E9 ; 8.314472681387726E10 ; 0.0
78 ; 4.456092774226938E7 ; 1.2080688698854313E9 ; 3.372560846707179E9 ; 8.435273524682436E10 ; 0.0
79 ; 4.45446511999602E7 ; 1.2081295054674418E9 ; 3.4171217744494486E9 ; 8.55608041167098E10 ; 0.0
80 ; 4.4537635515821256E7 ; 1.2081903294867756E9 ; 3.461666425649409E9 ; 8.676893362217723E10 ; 0.0
81 ; 4.4529571749152586E7 ; 1.2082513320472543E9 ; 3.5062040611652303E9 ; 8.7977123951664E10 ; 0.0
82 ; 4.4521068658267565E7 ; 1.208312503551517E9 ; 3.550733632914383E9 ; 8.918537528371126E10 ; 0.0
83 ; 4.450047627667386E7 ; 1.208373834690041E9 ; 3.5952547015726504E9 ; 9.039368778726277E10 ; 0.0
84 ; 4.448184450651915E7 ; 1.2084353164305272E9 ; 3.639755177849324E9 ; 9.160206162195282E10 ; 0.0
85 ; 4.44795177048495E7 ; 1.208496940007648E9 ; 3.6842370223558435E9 ; 9.281049693838335E10 ; 0.0
86 ; 4.4463346587520026E7 ; 1.2085586969131498E9 ; 3.7287165400606933E9 ; 9.401899387839099E10 ; 0.0
87 ; 4.444852506934723E7 ; 1.2086205788863075E9 ; 3.7731798866482134E9 ; 9.522755257530414E10 ; 0.0
88 ; 4.443606197245103E7 ; 1.2086825779047217E9 ; 3.817628411717561E9 ; 9.643617315419044E10 ; 0.0
89 ; 4.4418322538423E7 ; 1.2087446861754515E9 ; 3.862064473690012E9 ; 9.764485573209517E10 ; 0.0
90 ; 4.440029975807679E7 ; 1.2088068961264732E9 ; 3.906482796228435E9 ; 9.885360041827061E10 ; 0.0
91 ; 4.439293809530561E7 ; 1.208869200398459E9 ; 3.9508830959865117E9 ; 1.000624073143971E11 ; 0.0
92 ; 4.437971197918903E7 ; 1.208931591836866E9 ; 3.995276034081817E9 ; 1.0127127651479555E11 ; 0.0
93 ; 4.436168615520081E7 ; 1.2089940634843247E9 ; 4.039655746061006E9 ; 1.0248020810663242E11 ; 0.0
94 ; 4.434175792613788E7 ; 1.2090566085733216E9 ; 4.084017432216207E9 ; 1.0368920217011674E11 ; 0.0
95 ; 4.4328262887378976E7 ; 1.20911922051916E9 ; 4.128359190142345E9 ; 1.0489825877869006E11 ; 0.0
96 ; 4.430650131511417E7 ; 1.209181892913199E9 ; 4.172687453029724E9 ; 1.0610737799920923E11 ; 0.0
97 ; 4.428465852809945E7 ; 1.2092446195163531E9 ; 4.216993954344838E9 ; 1.0731655989212242E11 ; 0.0
98 ; 4.426963558194879E7 ; 1.2093073942528481E9 ; 4.2612786128729377E9 ; 1.0852580451163878E11 ; 0.0
99 ; 4.424496311222246E7 ; 1.2093702112042236E9 ; 4.305548248454886E9 ; 1.0973511190589163E11 ; 0.0
100 ; 4.423033457046129E7 ; 1.2094330646035697E9 ; 4.349793211567109E9 ; 1.1094448211709586E11 ; 0.0
101 ; 4.421386299887444E7 ; 1.209495948829996E9 ; 4.39402354613757E9 ; 1.1215391518169943E11 ; 0.0
102 ; 4.419979668797443E7 ; 1.2095588584033175E9 ; 4.438237409136445E9 ; 1.1336341113052943E11 ; 0.0
103 ; 4.418027548937873E7 ; 1.2096217879789536E9 ; 4.482437205824419E9 ; 1.1457296998893275E11 ; 0.0
104 ; 4.415424207677816E7 ; 1.20968473234303E9 ; 4.526617481313798E9 ; 1.1578259177691171E11 ; 0.0
105 ; 4.413502347114098E7 ; 1.209747686407676E9 ; 4.570771723390576E9 ; 1.1699227650925475E11 ; 0.0
106 ; 4.41091701896284E7 ; 1.2098106452065108E9 ; 4.614906746861717E9 ; 1.1820202419566241E11 ; 0.0
107 ; 4.408561310698567E7 ; 1.2098736038903093E9 ; 4.659015917051346E9 ; 1.1941183484086893E11 ; 0.0
108 ; 4.4068499312754005E7 ; 1.209936557722841E9 ; 4.703101530158332E9 ; 1.2062170844475923E11 ; 0.0
109 ; 4.4035765424532585E7 ; 1.209999502076877E9 ; 4.747170029471086E9 ; 1.2183164500248207E11 ; 0.0
110 ; 4.4026991779658355E7 ; 1.210062432430356E9 ; 4.791205794895618E9 ; 1.2304164450455894E11 ; 0.0
111 ; 4.3995818538189724E7 ; 1.210125344362702E9 ; 4.835232786675277E9 ; 1.242517069369893E11 ; 0.0
112 ; 4.3970684891247794E7 ; 1.210188233551291E9 ; 4.879228605213467E9 ; 1.25461832281352E11 ; 0.0
113 ; 4.3942652026177526E7 ; 1.2102510957680588E9 ; 4.923199290104714E9 ; 1.2667202051490329E11 ; 0.0
114 ; 4.3925422691291675E7 ; 1.210313926876243E9 ; 4.967141942130892E9 ; 1.2788227161067136E11 ; 0.0
115 ; 4.390445554573943E7 ; 1.2103767228272545E9 ; 5.011067364822184E9 ; 1.2909258553754759E11 ; 0.0
116 ; 4.387353883357219E7 ; 1.2104394796576748E9 ; 5.054971820367923E9 ; 1.3030296226037485E11 ; 0.0
117 ; 4.38451455193318E7 ; 1.2105021934863715E9 ; 5.098845359201495E9 ; 1.3151340174003252E11 ; 0.0
118 ; 4.381838866159412E7 ; 1.2105648605117273E9 ; 5.142690504720827E9 ; 1.3272390393351889E11 ; 0.0
119 ; 4.380379809284276E7 ; 1.2106274770089817E9 ; 5.1865088933824215E9 ; 1.3393446879403062E11 ; 0.0
120 ; 4.376176346988643E7 ; 1.2106900393276725E9 ; 5.230312691475265E9 ; 1.3514509627103961E11 ; 0.0
121 ; 4.37335155464305E7 ; 1.210752543889183E9 ; 5.274074454945151E9 ; 1.3635578631036728E11 ; 0.0
122 ; 4.370749762383011E7 ; 1.2108149871843839E9 ; 5.317807970491582E9 ; 1.3756653885425647E11 ; 0.0
123 ; 4.3686213890369564E7 ; 1.210877365771365E9 ; 5.361515468115412E9 ; 1.3877735384144086E11 ; 0.0
124 ; 4.3656861014440395E7 ; 1.2109396762732604E9 ; 5.405201682005781E9 ; 1.3998823120721222E11 ; 0.0
125 ; 4.362133809301347E7 ; 1.2110019153761537E9 ; 5.448858543020222E9 ; 1.4119917088348547E11 ; 0.0
126 ; 4.358658518147949E7 ; 1.2110640798270693E9 ; 5.492479881113235E9 ; 1.4241017279886163E11 ; 0.0
127 ; 4.3556468766690195E7 ; 1.2111261664320366E9 ; 5.536066466294715E9 ; 1.436212368786887E11 ; 0.0
128 ; 4.35368876324855E7 ; 1.211188172054234E9 ; 5.579622935061405E9 ; 1.4483236304512073E11 ; 0.0
129 ; 4.34948343323448E7 ; 1.2112500936122012E9 ; 5.623159822693891E9 ; 1.4604355121717496E11 ; 0.0
130 ; 4.346647903128082E7 ; 1.211311928078121E9 ; 5.666654657026236E9 ; 1.4725480131078717E11 ; 0.0
131 ; 4.341548749292838E7 ; 1.211373672476168E9 ; 5.710121136057516E9 ; 1.484661132388653E11 ; 0.0
132 ; 4.336884450095405E7 ; 1.211435323880919E9 ; 5.753536623550445E9 ; 1.4967748691134146E11 ; 0.0
133 ; 4.331821781623917E7 ; 1.2114968794158251E9 ; 5.796905468051398E9 ; 1.5088892223522238E11 ; 0.0
134 ; 4.328487768663106E7 ; 1.211558336251742E9 ; 5.840223685867638E9 ; 1.521004191146382E11 ; 0.0
135 ; 4.323971745383539E7 ; 1.2116196916055133E9 ; 5.883508563554269E9 ; 1.5331197745088995E11 ; 0.0
136 ; 4.319239282758334E7 ; 1.2116809427386122E9 ; 5.926748281008104E9 ; 1.5452359714249545E11 ; 0.0
137 ; 4.313988374166713E7 ; 1.2117420869558287E9 ; 5.969940673835688E9 ; 1.5573527808523407E11 ; 0.0
138 ; 4.309175309989399E7 ; 1.2118031216040108E9 ; 6.013080557577354E9 ; 1.569470201721899E11 ; 0.0
139 ; 4.3046446881382145E7 ; 1.211864044070851E9 ; 6.056172310677248E9 ; 1.581588232937939E11 ; 0.0
140 ; 4.299518432571553E7 ; 1.2119248517837157E9 ; 6.09921875755863E9 ; 1.5937068733786478E11 ; 0.0
141 ; 4.294525288222645E7 ; 1.2119855422085218E9 ; 6.142213941884345E9 ; 1.605826121896485E11 ; 0.0
142 ; 4.2900452087442994E7 ; 1.2120461128486538E9 ; 6.185159194766571E9 ; 1.6179459773185703E11 ; 0.0
143 ; 4.285208524896641E7 ; 1.2121065612439184E9 ; 6.228059646854014E9 ; 1.630066438447057E11 ; 0.0
144 ; 4.2802867222978584E7 ; 1.2121668849695415E9 ; 6.270911732102981E9 ; 1.6421875040594962E11 ; 0.0
145 ; 4.277174046485837E7 ; 1.2122270816351995E9 ; 6.313714599325959E9 ; 1.6543091729091916E11 ; 0.0
146 ; 4.27334248213576E7 ; 1.2122871488840847E9 ; 6.356486339790817E9 ; 1.6664314437255435E11 ; 0.0
147 ; 4.270134701892689E7 ; 1.212347084392009E9 ; 6.399219764612175E9 ; 1.6785543152143845E11 ; 0.0
148 ; 4.2663780268200144E7 ; 1.2124068858665364E9 ; 6.441921111631102E9 ; 1.6906777860583044E11 ; 0.0
149 ; 4.2637858807487614E7 ; 1.2124665510461478E9 ; 6.484584891899302E9 ; 1.70280185491697E11 ; 0.0
150 ; 4.260035140261365E7 ; 1.2125260776994367E9 ; 6.527222750706789E9 ; 1.7149265204274313E11 ; 0.0
151 ; 4.2563896953004785E7 ; 1.212585463624333E9 ; 6.569823102109403E9 ; 1.7270517812044257E11 ; 0.0
152 ; 4.253148755573531E7 ; 1.212644706647355E9 ; 6.6123869990624075E9 ; 1.739177635840669E11 ; 0.0
153 ; 4.2497287972090065E7 ; 1.2127038046228886E9 ; 6.654918486618143E9 ; 1.7513040829071426E11 ; 0.0
154 ; 4.245727937526202E7 ; 1.21276275543249E9 ; 6.697415774590233E9 ; 1.7634311209533716E11 ; 0.0
155 ; 4.242142678037359E7 ; 1.212821556984216E9 ; 6.739873053965495E9 ; 1.7755587485076965E11 ; 0.0
156 ; 4.23888176217096E7 ; 1.2128802072119756E9 ; 6.782294480745869E9 ; 1.7876869640775388E11 ; 0.0
157 ; 4.235395033325414E7 ; 1.212938704074906E9 ; 6.8246832983675785E9 ; 1.7998157661496585E11 ; 0.0
158 ; 4.2325416913830675E7 ; 1.2129970455567703E9 ; 6.867037248700832E9 ; 1.8119451531904077E11 ; 0.0
159 ; 4.228153432723704E7 ; 1.2130552296653748E9 ; 6.909362665614663E9 ; 1.8240751236459753E11 ; 0.0
160 ; 4.224746381361874E7 ; 1.2131132544320083E9 ; 6.9516441999419E9 ; 1.836205675942629E11 ; 0.0
161 ; 4.221068674334589E7 ; 1.2131711179109E9 ; 6.993891663755519E9 ; 1.8483368084869492E11 ; 0.0
162 ; 4.217498346271449E7 ; 1.213228818178698E9 ; 7.036102350498865E9 ; 1.860468519666058E11 ; 0.0
163 ; 4.214729556938658E7 ; 1.2132863533339615E9 ; 7.078277333961579E9 ; 1.8726008078478452E11 ; 0.0
164 ; 4.2100006058849186E7 ; 1.2133437214966762E9 ; 7.120424629530966E9 ; 1.8847336713811847E11 ; 0.0
165 ; 4.206533795838743E7 ; 1.213400920807781E9 ; 7.162524635589815E9 ; 1.8968671085961514E11 ; 0.0
166 ; 4.2028126380772345E7 ; 1.2134579494287148E9 ; 7.2045899735482025E9 ; 1.909001117804229E11 ; 0.0
167 ; 4.200043353642297E7 ; 1.2135148055409772E9 ; 7.246618099928975E9 ; 1.9211356972985162E11 ; 0.0
168 ; 4.196155524537067E7 ; 1.2135714873457036E9 ; 7.288618533465398E9 ; 1.933270845353926E11 ; 0.0
169 ; 4.19195623081623E7 ; 1.2136279930632553E9 ; 7.330580088710769E9 ; 1.945406560227383E11 ; 0.0
170 ; 4.1884132872560084E7 ; 1.213684320932825E9 ; 7.372499651018931E9 ; 1.9575428401580157E11 ; 0.0
171 ; 4.184070035459264E7 ; 1.2137404692120516E9 ; 7.414383783891492E9 ; 1.969679683367344E11 ; 0.0
172 ; 4.1803024599255934E7 ; 1.2137964361766527E9 ; 7.456224484246084E9 ; 1.9818170880594647E11 ; 0.0
173 ; 4.1773640409585E7 ; 1.2138522201200655E9 ; 7.49802750884534E9 ; 1.9939550524212314E11 ; 0.0
174 ; 4.175108104098919E7 ; 1.213907819353103E9 ; 7.539801149254925E9 ; 2.006093574622432E11 ; 0.0
175 ; 4.172461806558625E7 ; 1.2139632322036183E9 ; 7.581552230295914E9 ; 2.0182326528159628E11 ; 0.0
176 ; 4.1700357690270975E7 ; 1.2140184570161831E9 ; 7.6232768483615E9 ; 2.030372285137999E11 ; 0.0
177 ; 4.167876952809225E7 ; 1.2140734921517751E9 ; 7.664977206051771E9 ; 2.0425124697081607E11 ; 0.0
178 ; 4.165855263796182E7 ; 1.2141283359874754E9 ; 7.706655975579864E9 ; 2.0546532046296783E11 ; 0.0
179 ; 4.162492087519669E7 ; 1.2141829869161787E9 ; 7.748314528217825E9 ; 2.0667944879895532E11 ; 0.0
180 ; 4.16056923015278E7 ; 1.2142374433463087E9 ; 7.789939449093021E9 ; 2.078936317858715E11 ; 0.0
181 ; 4.1578718153512016E7 ; 1.2142917037015462E9 ; 7.831545141394549E9 ; 2.091078692292178E11 ; 0.0
182 ; 4.1565984718173206E7 ; 1.214345766420565E9 ; 7.873123859548061E9 ; 2.1032216093291934E11 ; 0.0
183 ; 4.1534440317230634E7 ; 1.2143996299567764E9 ; 7.914689844266234E9 ; 2.115365066993399E11 ; 0.0
184 ; 4.152330897311448E7 ; 1.2144532927780821E9 ; 7.956224284583465E9 ; 2.127509063292967E11 ; 0.0
185 ; 4.149445131832084E7 ; 1.2145067533666348E9 ; 7.997747593556579E9 ; 2.1396535962207477E11 ; 0.0
186 ; 4.147050332001271E7 ; 1.214560010218607E9 ; 8.0392420448749E9 ; 2.151798663754414E11 ; 0.0
187 ; 4.145219278746514E7 ; 1.2146130618439674E9 ; 8.080712548194913E9 ; 2.1639442638566E11 ; 0.0
188 ; 4.1425982151602276E7 ; 1.2146659067662635E9 ; 8.122164740982378E9 ; 2.1760903944750397E11 ; 0.0
189 ; 4.140054417637763E7 ; 1.2147185435224125E9 ; 8.163590723133981E9 ; 2.1882370535427023E11 ; 0.0
190 ; 4.13790677167952E7 ; 1.2147709706624992E9 ; 8.204991267310358E9 ; 2.2003842389779263E11 ; 0.0
191 ; 4.135615390625887E7 ; 1.214823186749577E9 ; 8.246370335027153E9 ; 2.2125319486845514E11 ; 0.0
192 ; 4.1335429617833585E7 ; 1.2148751903594804E9 ; 8.287726488933412E9 ; 2.224680180552047E11 ; 0.0
193 ; 4.130811609734782E7 ; 1.2149269800806394E9 ; 8.329061918551245E9 ; 2.2368289324556418E11 ; 0.0
194 ; 4.128411669486832E7 ; 1.2149785545139017E9 ; 8.370370034648593E9 ; 2.248978202256448E11 ; 0.0
195 ; 4.1261928973105475E7 ; 1.21502991227236E9 ; 8.411654151343461E9 ; 2.2611279878015872E11 ; 0.0
196 ; 4.123499126297947E7 ; 1.215081051981186E9 ; 8.452916080316566E9 ; 2.273278286924311E11 ; 0.0
197 ; 4.12118626772268E7 ; 1.2151319722774665E9 ; 8.494151071579546E9 ; 2.285429097444123E11 ; 0.0
