CSV File for the Network on Day 68
1 - Minute m 
2 - Power Consumed at minute m 
3 - Power Produced at minute m 
4 - Energy Consumed since the beginning of the day 
5 - Energy Produced since the beginning of the day 
6 - Energy Lost since the beginning of the day 
 
0 ; 3.8473233917416796E7 ; 6.34417014348717E8 ; 0.0 ; 0.0 ; 0.0
1 ; 3.8507227889643826E7 ; 6.35327260947135E8 ; 3.8473233917416796E7 ; 6.34417014348717E8 ; 0.0
2 ; 3.8556776728306696E7 ; 6.380909456801244E8 ; 7.698046180706063E7 ; 1.269744275295852E9 ; 0.0
3 ; 3.859720389409331E7 ; 6.427080893138063E8 ; 1.1553723853536732E8 ; 1.9078352209759765E9 ; 0.0
4 ; 3.8655050972477496E7 ; 6.491787105304873E8 ; 1.5413444242946064E8 ; 2.5505433102897825E9 ; 0.0
5 ; 3.872625388204103E7 ; 6.575028258010643E8 ; 1.9278949340193814E8 ; 3.1997220208202696E9 ; 0.0
6 ; 3.881691612019707E7 ; 6.676804492698281E8 ; 2.3151574728397918E8 ; 3.857224846621334E9 ; 0.0
7 ; 3.893583780412942E7 ; 6.797115926535152E8 ; 2.7033266340417624E8 ; 4.524905295891162E9 ; 0.0
8 ; 3.9122041989081405E7 ; 6.935962651562505E8 ; 3.0926850120830566E8 ; 5.204616888544677E9 ; 0.0
9 ; 3.940646359784383E7 ; 7.093344734018221E8 ; 3.4839054319738704E8 ; 5.898213153700928E9 ; 0.0
10 ; 3.9838678182159275E7 ; 7.269262213844433E8 ; 3.8779700679523087E8 ; 6.60754762710275E9 ; 0.0
11 ; 4.052639290369976E7 ; 7.463715104388592E8 ; 4.2763568497739017E8 ; 7.334473848487193E9 ; 0.0
12 ; 4.164188544804613E7 ; 7.676703392303246E8 ; 4.681620778810899E8 ; 8.080845358926052E9 ; 0.0
13 ; 4.269463612892126E7 ; 7.908227037646263E8 ; 5.098039633291361E8 ; 8.848515698156376E9 ; 0.0
14 ; 4.282206904486185E7 ; 8.158285974179764E8 ; 5.524985994580573E8 ; 9.639338401921001E9 ; 0.0
15 ; 4.287722832772232E7 ; 8.426880109862494E8 ; 5.953206685029192E8 ; 1.0455166999338978E10 ; 0.0
16 ; 4.291995320005806E7 ; 8.714009327527097E8 ; 6.381978968306415E8 ; 1.1297855010325228E10 ; 0.0
17 ; 4.297134820861825E7 ; 9.019673485730655E8 ; 6.811178500306996E8 ; 1.2169255943077938E10 ; 0.0
18 ; 4.301989955337368E7 ; 9.343872419764206E8 ; 7.240891982393179E8 ; 1.3071223291651003E10 ; 0.0
19 ; 4.307121232359241E7 ; 9.686605942804683E8 ; 7.671090977926916E8 ; 1.4005610533627424E10 ; 0.0
20 ; 4.3118963229346246E7 ; 1.0047873847190871E9 ; 8.10180310116284E8 ; 1.4974271127907892E10 ; 0.0
21 ; 4.316998608649864E7 ; 1.0427675905803785E9 ; 8.532992733456303E8 ; 1.597905851262698E10 ; 0.0
22 ; 4.322356964998697E7 ; 1.0826011873531046E9 ; 8.964692594321289E8 ; 1.702182610320736E10 ; 0.0
23 ; 4.326594871445739E7 ; 1.1242881488794563E9 ; 9.396928290821159E8 ; 1.8104427290560463E10 ; 0.0
24 ; 4.332709191365712E7 ; 1.1678284475121124E9 ; 9.829587777965733E8 ; 1.922871543943992E10 ; 0.0
25 ; 4.337002629323641E7 ; 1.2053502996627104E9 ; 1.0262858697102304E9 ; 2.039654388695203E10 ; 0.0
26 ; 4.3418054517498836E7 ; 1.2053749621830235E9 ; 1.0696558960034667E9 ; 2.1601894186614742E10 ; 0.0
27 ; 4.347262859430578E7 ; 1.2054010196728833E9 ; 1.1130739505209656E9 ; 2.2807269148797768E10 ; 0.0
28 ; 4.351326868590362E7 ; 1.2054284401164286E9 ; 1.1565465791152713E9 ; 2.401267016847065E10 ; 0.0
29 ; 4.35632765888494E7 ; 1.205457190792908E9 ; 1.2000598478011749E9 ; 2.521809860858708E10 ; 0.0
30 ; 4.361287332951017E7 ; 1.2054872384225125E9 ; 1.2436231243900242E9 ; 2.6423555799379986E10 ; 0.0
31 ; 4.365329127294782E7 ; 1.205518549305688E9 ; 1.2872359977195344E9 ; 2.7629043037802498E10 ; 0.0
32 ; 4.3701514162521884E7 ; 1.2055510894551022E9 ; 1.3308892889924822E9 ; 2.8834561587108185E10 ; 0.0
33 ; 4.374899022513035E7 ; 1.2055848247196252E9 ; 1.374590803155004E9 ; 3.0040112676563286E10 ; 0.0
34 ; 4.378323045039383E7 ; 1.2056197208998642E9 ; 1.4183397933801343E9 ; 3.124569750128291E10 ; 0.0
35 ; 4.383110404589327E7 ; 1.2056557438549492E9 ; 1.4621230238305283E9 ; 3.2451317222182774E10 ; 0.0
36 ; 4.386974671655091E7 ; 1.2056928596004264E9 ; 1.5059541278764215E9 ; 3.3656972966037724E10 ; 0.0
37 ; 4.3906062089643225E7 ; 1.2057310343972464E9 ; 1.5498238745929723E9 ; 3.486266582563815E10 ; 0.0
38 ; 4.3939341934278704E7 ; 1.2057702348319447E9 ; 1.5937299366826155E9 ; 3.60683968600354E10 ; 0.0
39 ; 4.397640262260756E7 ; 1.205810427888219E9 ; 1.6376692786168942E9 ; 3.727416709486735E10 ; 0.0
40 ; 4.401384702910283E7 ; 1.205851581010189E9 ; 1.6816456812395017E9 ; 3.847997752275557E10 ; 0.0
41 ; 4.4049171696734235E7 ; 1.2058936621576843E9 ; 1.7256595282686045E9 ; 3.968582910376576E10 ; 0.0
42 ; 4.4072073673497856E7 ; 1.2059366398539643E9 ; 1.7697086999653387E9 ; 4.089172276592345E10 ; 0.0
43 ; 4.409927558322169E7 ; 1.2059804832263117E9 ; 1.8137807736388366E9 ; 4.209765940577741E10 ; 0.0
44 ; 4.412308508143273E7 ; 1.2060251620399566E9 ; 1.8578800492220583E9 ; 4.330363988900372E10 ; 0.0
45 ; 4.414584020084166E7 ; 1.206070646725819E9 ; 1.902003134303491E9 ; 4.450966505104368E10 ; 0.0
46 ; 4.417069527108777E7 ; 1.206116908402546E9 ; 1.9461489745043328E9 ; 4.57157356977695E10 ; 0.0
47 ; 4.419355179167467E7 ; 1.2061639188933284E9 ; 1.9903196697754207E9 ; 4.692185260617204E10 ; 0.0
48 ; 4.4206846761488914E7 ; 1.2062116507379723E9 ; 2.0345132215670953E9 ; 4.812801652506537E10 ; 0.0
49 ; 4.422040012470448E7 ; 1.2062600772006762E9 ; 2.0787200683285842E9 ; 4.9334228175803345E10 ; 0.0
50 ; 4.423857085847718E7 ; 1.206309172273961E9 ; 2.1229404684532886E9 ; 5.054048825300402E10 ; 0.0
51 ; 4.425614400653375E7 ; 1.206358910679165E9 ; 2.1671790393117657E9 ; 5.1746797425277985E10 ; 0.0
52 ; 4.426113779818704E7 ; 1.206409267863901E9 ; 2.2114351833182993E9 ; 5.295315633595715E10 ; 0.0
53 ; 4.4278927231566526E7 ; 1.206460219996848E9 ; 2.2556963211164865E9 ; 5.415956560382105E10 ; 0.0
54 ; 4.429373356642746E7 ; 1.206511743960214E9 ; 2.299975248348053E9 ; 5.53660258238179E10 ; 0.0
55 ; 4.4299685616536885E7 ; 1.206563817340193E9 ; 2.34426898191448E9 ; 5.6572537567778114E10 ; 0.0
56 ; 4.4315365846653655E7 ; 1.206616418415708E9 ; 2.3885686675310173E9 ; 5.777910138511831E10 ; 0.0
57 ; 4.432796102261459E7 ; 1.2066695261457024E9 ; 2.432884033377671E9 ; 5.898571780353402E10 ; 0.0
58 ; 4.4331610081687264E7 ; 1.2067231201552274E9 ; 2.4772119944002852E9 ; 6.019238732967972E10 ; 0.0
59 ; 4.43484850668592E7 ; 1.206777180720542E9 ; 2.5215436044819727E9 ; 6.1399110449834946E10 ; 0.0
60 ; 4.435494057503681E7 ; 1.206831688753421E9 ; 2.565892089548832E9 ; 6.260588763055549E10 ; 0.0
61 ; 4.435843609739004E7 ; 1.2068866257848516E9 ; 2.610247030123869E9 ; 6.381271931930891E10 ; 0.0
62 ; 4.43714494130534E7 ; 1.2069419739482722E9 ; 2.654605466221259E9 ; 6.501960594509376E10 ; 0.0
63 ; 4.437578593392943E7 ; 1.2069977159624949E9 ; 2.6989769156343126E9 ; 6.622654791904203E10 ; 0.0
64 ; 4.4382708860569604E7 ; 1.207053835114431E9 ; 2.743352701568242E9 ; 6.7433545635004524E10 ; 0.0
65 ; 4.439833486432926E7 ; 1.2071103152417326E9 ; 2.7877354104288116E9 ; 6.864059947011896E10 ; 0.0
66 ; 4.440302251405537E7 ; 1.2071671407154377E9 ; 2.832133745293141E9 ; 6.984770978536069E10 ; 0.0
67 ; 4.4408143643659286E7 ; 1.2072242964227026E9 ; 2.876536767807196E9 ; 7.105487692607613E10 ; 0.0
68 ; 4.4412288780448996E7 ; 1.207281767749692E9 ; 2.9209449114508553E9 ; 7.226210122249883E10 ; 0.0
69 ; 4.4413234508353114E7 ; 1.2073395405646856E9 ; 2.965357200231304E9 ; 7.346938299024852E10 ; 0.0
70 ; 4.442467429762759E7 ; 1.2073976012014463E9 ; 3.0097704347396574E9 ; 7.46767225308132E10 ; 0.0
71 ; 4.442696319487549E7 ; 1.2074559364429002E9 ; 3.054195109037285E9 ; 7.588412013201465E10 ; 0.0
72 ; 4.443012309972722E7 ; 1.207514533505156E9 ; 3.0986220722321606E9 ; 7.709157606845755E10 ; 0.0
73 ; 4.4429416842111446E7 ; 1.2075733800218935E9 ; 3.1430521953318877E9 ; 7.82990906019627E10 ; 0.0
74 ; 4.44375598691784E7 ; 1.207632464029143E9 ; 3.1874816121739993E9 ; 7.95066639819846E10 ; 0.0
75 ; 4.4445873734017745E7 ; 1.2076917739504738E9 ; 3.2319191720431776E9 ; 8.071429644601375E10 ; 0.0
76 ; 4.444762191040334E7 ; 1.2077512985826008E9 ; 3.2763650457771955E9 ; 8.192198821996422E10 ; 0.0
77 ; 4.445036886561639E7 ; 1.207811027081422E9 ; 3.3208126676875987E9 ; 8.312973951854681E10 ; 0.0
78 ; 4.44374133871868E7 ; 1.207870948948487E9 ; 3.365263036553215E9 ; 8.433755054562823E10 ; 0.0
79 ; 4.442046026622593E7 ; 1.2079310540179024E9 ; 3.409700449940402E9 ; 8.554542149457672E10 ; 0.0
80 ; 4.441136036570907E7 ; 1.2079913324436724E9 ; 3.454120910206628E9 ; 8.675335254859462E10 ; 0.0
81 ; 4.440360007760064E7 ; 1.2080517746874728E9 ; 3.498532270572337E9 ; 8.79613438810383E10 ; 0.0
82 ; 4.439039404565275E7 ; 1.208112371506849E9 ; 3.5429358706499376E9 ; 8.916939565572577E10 ; 0.0
83 ; 4.437675494886788E7 ; 1.2081731139438422E9 ; 3.5873262646955905E9 ; 9.037750802723262E10 ; 0.0
84 ; 4.435818881831391E7 ; 1.2082339933140242E9 ; 3.6317030196444583E9 ; 9.158568114117647E10 ; 0.0
85 ; 4.434955427801287E7 ; 1.2082950011959438E9 ; 3.6760612084627724E9 ; 9.27939151344905E10 ; 0.0
86 ; 4.4326646820234545E7 ; 1.2083561294209676E9 ; 3.720410762740785E9 ; 9.400221013568643E10 ; 0.0
87 ; 4.431750313867573E7 ; 1.208417370063508E9 ; 3.76473740956102E9 ; 9.52105662651074E10 ; 0.0
88 ; 4.430351010190148E7 ; 1.2084787154316318E9 ; 3.8090549126996956E9 ; 9.641898363517091E10 ; 0.0
89 ; 4.4282877857982546E7 ; 1.2085401580580304E9 ; 3.853358422801597E9 ; 9.762746235060254E10 ; 0.0
90 ; 4.426411982731165E7 ; 1.2086016906913497E9 ; 3.8976413006595798E9 ; 9.883600250866057E10 ; 0.0
91 ; 4.42553686543493E7 ; 1.2086633062878613E9 ; 3.9419054204868913E9 ; 1.0004460419935191E11 ; 0.0
92 ; 4.4234919183245495E7 ; 1.208724998003468E9 ; 3.9861607891412406E9 ; 1.0125326750563977E11 ; 0.0
93 ; 4.422509739027654E7 ; 1.208786759186031E9 ; 4.0303957083244863E9 ; 1.0246199250364323E11 ; 0.0
94 ; 4.4201059419572994E7 ; 1.2088485833680074E9 ; 4.0746208057147627E9 ; 1.0367077926282927E11 ; 0.0
95 ; 4.4177934561626315E7 ; 1.2089104642593865E9 ; 4.1188218651343355E9 ; 1.0487962784619728E11 ; 0.0
96 ; 4.416746596755479E7 ; 1.2089723957409148E9 ; 4.162999799695962E9 ; 1.0608853831045667E11 ; 0.0
97 ; 4.414470571631642E7 ; 1.2090343718575993E9 ; 4.2071672656635165E9 ; 1.0729751070619759E11 ; 0.0
98 ; 4.412600847417253E7 ; 1.2090963868124766E9 ; 4.2513119713798327E9 ; 1.0850654507805519E11 ; 0.0
99 ; 4.4104674204857215E7 ; 1.2091584349606388E9 ; 4.295437979854005E9 ; 1.0971564146486766E11 ; 0.0
100 ; 4.409324365562164E7 ; 1.2092205108035078E9 ; 4.339542654058862E9 ; 1.109247998998283E11 ; 0.0
101 ; 4.4063829670929074E7 ; 1.2092826089833436E9 ; 4.383635897714483E9 ; 1.121340204106318E11 ; 0.0
102 ; 4.405031972879404E7 ; 1.209344724277981E9 ; 4.427699727385412E9 ; 1.1334330301961514E11 ; 0.0
103 ; 4.401714218217049E7 ; 1.2094068515957856E9 ; 4.471750047114206E9 ; 1.1455264774389313E11 ; 0.0
104 ; 4.4003030727312684E7 ; 1.209468985970817E9 ; 4.515767189296377E9 ; 1.157620545954889E11 ; 0.0
105 ; 4.397586808786218E7 ; 1.2095311225581932E9 ; 4.55977022002369E9 ; 1.1697152358145972E11 ; 0.0
106 ; 4.396289690603715E7 ; 1.209593256629647E9 ; 4.603746088111552E9 ; 1.1818105470401791E11 ; 0.0
107 ; 4.393939435602998E7 ; 1.2096553835692663E9 ; 4.64770898501759E9 ; 1.1939064796064757E11 ; 0.0
108 ; 4.3920588654902816E7 ; 1.209717498869412E9 ; 4.691648379373619E9 ; 1.2060030334421683E11 ; 0.0
109 ; 4.388643451783058E7 ; 1.2097795981268024E9 ; 4.735568968028522E9 ; 1.2181002084308624E11 ; 0.0
110 ; 4.38622786078969E7 ; 1.2098416770387611E9 ; 4.779455402546352E9 ; 1.2301980044121304E11 ; 0.0
111 ; 4.3842987808068275E7 ; 1.2099037313996196E9 ; 4.823317681154249E9 ; 1.242296421182518E11 ; 0.0
112 ; 4.381195296645435E7 ; 1.2099657570972667E9 ; 4.867160668962317E9 ; 1.2543954584965141E11 ; 0.0
113 ; 4.3785956433345474E7 ; 1.2100277501098423E9 ; 4.910972621928772E9 ; 1.2664951160674867E11 ; 0.0
114 ; 4.376437525314045E7 ; 1.210089706502563E9 ; 4.954758578362118E9 ; 1.2785953935685852E11 ; 0.0
115 ; 4.373597601816621E7 ; 1.2101516224246826E9 ; 4.998522953615258E9 ; 1.2906962906336108E11 ; 0.0
116 ; 4.3712160859299615E7 ; 1.2102134941065733E9 ; 5.042258929633425E9 ; 1.3027978068578577E11 ; 0.0
117 ; 4.367630960370782E7 ; 1.2102753178569267E9 ; 5.085971090492724E9 ; 1.3148999417989233E11 ; 0.0
118 ; 4.365537070155932E7 ; 1.2103370900600688E9 ; 5.129647400096433E9 ; 1.3270026949774927E11 ; 0.0
119 ; 4.362943749451896E7 ; 1.2103988071733856E9 ; 5.173302770797992E9 ; 1.3391060658780934E11 ; 0.0
120 ; 4.3598667207037315E7 ; 1.2104604657248495E9 ; 5.216932208292511E9 ; 1.3512100539498273E11 ; 0.0
121 ; 4.356850779268294E7 ; 1.210522062310649E9 ; 5.260530875499548E9 ; 1.3633146586070758E11 ; 0.0
122 ; 4.353968562319722E7 ; 1.210583593592911E9 ; 5.304099383292231E9 ; 1.3754198792301822E11 ; 0.0
123 ; 4.350675957870334E7 ; 1.2106450562975178E9 ; 5.347639068915428E9 ; 1.3875257151661115E11 ; 0.0
124 ; 4.347997750599579E7 ; 1.210706447212007E9 ; 5.391145828494131E9 ; 1.3996321657290866E11 ; 0.0
125 ; 4.345460096780634E7 ; 1.21076776318356E9 ; 5.434625806000127E9 ; 1.4117392302012067E11 ; 0.0
126 ; 4.342077016293544E7 ; 1.2108290011170664E9 ; 5.478080406967934E9 ; 1.4238469078330423E11 ; 0.0
127 ; 4.338724521532145E7 ; 1.2108901579732683E9 ; 5.521501177130869E9 ; 1.435955197844213E11 ; 0.0
128 ; 4.335495507977138E7 ; 1.2109512307669756E9 ; 5.56488842234619E9 ; 1.4480640994239456E11 ; 0.0
129 ; 4.332046780366436E7 ; 1.211012216565354E9 ; 5.6082433774259615E9 ; 1.4601736117316153E11 ; 0.0
130 ; 4.32812335728561E7 ; 1.2110731124862773E9 ; 5.651563845229626E9 ; 1.472283733897269E11 ; 0.0
131 ; 4.32382308146977E7 ; 1.2111339156967463E9 ; 5.694845078802482E9 ; 1.4843944650221317E11 ; 0.0
132 ; 4.319103654223906E7 ; 1.2111946234113698E9 ; 5.738083309617179E9 ; 1.496505804179099E11 ; 0.0
133 ; 4.314696141822772E7 ; 1.2112552328909013E9 ; 5.781274346159418E9 ; 1.508617750413213E11 ; 0.0
134 ; 4.310041665713078E7 ; 1.2113157414408379E9 ; 5.824421307577646E9 ; 1.520730302742122E11 ; 0.0
135 ; 4.304655510679262E7 ; 1.2113761464100673E9 ; 5.867521724234777E9 ; 1.53284346015653E11 ; 0.0
136 ; 4.300566698528826E7 ; 1.2114364451895719E9 ; 5.91056827934157E9 ; 1.5449572216206308E11 ; 0.0
137 ; 4.295216457819214E7 ; 1.2114966352111785E9 ; 5.9535739463268585E9 ; 1.5570715860725266E11 ; 0.0
138 ; 4.290339813381845E7 ; 1.2115567139463587E9 ; 5.99652611090505E9 ; 1.5691865524246384E11 ; 0.0
139 ; 4.285200019248678E7 ; 1.2116166789050741E9 ; 6.039429509038869E9 ; 1.581302119564102E11 ; 0.0
140 ; 4.281030088779694E7 ; 1.2116765276346643E9 ; 6.082281509231356E9 ; 1.5934182863531525E11 ; 0.0
141 ; 4.275814545951246E7 ; 1.2117362577187781E9 ; 6.125091810119153E9 ; 1.6055350516294992E11 ; 0.0
142 ; 4.270499031445025E7 ; 1.2117958667763448E9 ; 6.167849955578666E9 ; 1.617652414206687E11 ; 0.0
143 ; 4.265141390214143E7 ; 1.2118553524605837E9 ; 6.210554945893116E9 ; 1.6297703728744504E11 ; 0.0
144 ; 4.260806232424815E7 ; 1.2119147124580505E9 ; 6.253206359795258E9 ; 1.641888926399056E11 ; 0.0
145 ; 4.257462774239889E7 ; 1.21197394448772E9 ; 6.295814422119506E9 ; 1.6540080735236365E11 ; 0.0
146 ; 4.253152786545893E7 ; 1.2120330463001027E9 ; 6.338389049861905E9 ; 1.6661278129685138E11 ; 0.0
147 ; 4.249709214307202E7 ; 1.2120920156763926E9 ; 6.380920577727364E9 ; 1.678248143431515E11 ; 0.0
148 ; 4.2466347436725706E7 ; 1.2121508504276495E9 ; 6.423417669870436E9 ; 1.6903690635882788E11 ; 0.0
149 ; 4.243221935969342E7 ; 1.2122095483940072E9 ; 6.465884017307161E9 ; 1.7024905720925552E11 ; 0.0
150 ; 4.23961341669035E7 ; 1.212268107443915E9 ; 6.508316236666855E9 ; 1.7146126675764954E11 ; 0.0
151 ; 4.2353305953483224E7 ; 1.2123265254734027E9 ; 6.550712370833758E9 ; 1.7267353486509344E11 ; 0.0
152 ; 4.231349448976937E7 ; 1.212384800405377E9 ; 6.593065676787242E9 ; 1.7388586139056683E11 ; 0.0
153 ; 4.2280031649624094E7 ; 1.2124429301889386E9 ; 6.635379171277011E9 ; 1.750982461909722E11 ; 0.0
154 ; 4.224915662878028E7 ; 1.2125009127987268E9 ; 6.677659202926635E9 ; 1.7631068912116113E11 ; 0.0
155 ; 4.2211372554183535E7 ; 1.2125587462342877E9 ; 6.719908359555415E9 ; 1.7752319003395987E11 ; 0.0
156 ; 4.217765246400645E7 ; 1.2126164285194638E9 ; 6.762119732109599E9 ; 1.7873574878019415E11 ; 0.0
157 ; 4.2139545316176884E7 ; 1.2126739577018056E9 ; 6.804297384573606E9 ; 1.7994836520871362E11 ; 0.0
158 ; 4.210700119374174E7 ; 1.212731331852005E9 ; 6.846436929889782E9 ; 1.8116103916641544E11 ; 0.0
159 ; 4.2069844001475625E7 ; 1.2127885490633488E9 ; 6.888543931083524E9 ; 1.8237377049826746E11 ; 0.0
160 ; 4.2025421687603116E7 ; 1.2128456074511898E9 ; 6.930613775084999E9 ; 1.835865590473308E11 ; 0.0
161 ; 4.198781437590662E7 ; 1.212902505152439E9 ; 6.972639196772602E9 ; 1.84799404654782E11 ; 0.0
162 ; 4.195649831057266E7 ; 1.212959240325074E9 ; 7.014627011148509E9 ; 1.8601230715993445E11 ; 0.0
163 ; 4.191815240394395E7 ; 1.2130158111476645E9 ; 7.056583509459082E9 ; 1.8722526640025952E11 ; 0.0
164 ; 4.1880638132297136E7 ; 1.2130722158189163E9 ; 7.098501661863026E9 ; 1.884382822114072E11 ; 0.0
165 ; 4.1839309255524695E7 ; 1.213128452557228E9 ; 7.140382299995323E9 ; 1.896513544272261E11 ; 0.0
166 ; 4.1798600425823554E7 ; 1.2131845196002665E9 ; 7.182221609250848E9 ; 1.9086448287978333E11 ; 0.0
167 ; 4.175843613296029E7 ; 1.213240415204554E9 ; 7.224020209676671E9 ; 1.920776673993836E11 ; 0.0
168 ; 4.172485408813739E7 ; 1.213296137645072E9 ; 7.265778645809631E9 ; 1.9329090781458817E11 ; 0.0
169 ; 4.168720252600921E7 ; 1.2133516852148778E9 ; 7.307503499897769E9 ; 1.9450420395223325E11 ; 0.0
170 ; 4.164704577982467E7 ; 1.2134070562247322E9 ; 7.349190702423779E9 ; 1.9571755563744812E11 ; 0.0
171 ; 4.1611827810852274E7 ; 1.2134622490027437E9 ; 7.390837748203603E9 ; 1.9693096269367285E11 ; 0.0
172 ; 4.156731609958477E7 ; 1.213517261894022E9 ; 7.432449576014455E9 ; 1.981444249426756E11 ; 0.0
173 ; 4.1531969774074584E7 ; 1.213572093260344E9 ; 7.474016892114039E9 ; 1.993579422045696E11 ; 0.0
174 ; 4.150890527481375E7 ; 1.2136267414798315E9 ; 7.515548861888114E9 ; 2.0057151429782996E11 ; 0.0
175 ; 4.148554389023441E7 ; 1.213681204946639E9 ; 7.557057767162928E9 ; 2.0178514103930978E11 ; 0.0
176 ; 4.145421221464029E7 ; 1.2137354820706537E9 ; 7.598543311053162E9 ; 2.029988222442564E11 ; 0.0
177 ; 4.144580044900078E7 ; 1.2137895712772021E9 ; 7.639997523267802E9 ; 2.0421255772632706E11 ; 0.0
178 ; 4.141081385988806E7 ; 1.2138434710067718E9 ; 7.681443323716803E9 ; 2.0542634729760425E11 ; 0.0
179 ; 4.1393393943033375E7 ; 1.213897179714737E9 ; 7.722854137576691E9 ; 2.0664019076861102E11 ; 0.0
180 ; 4.135615280688361E7 ; 1.2139506958710957E9 ; 7.764247531519724E9 ; 2.0785408794832574E11 ; 0.0
181 ; 4.133856811646077E7 ; 1.2140040179602175E9 ; 7.805603684326608E9 ; 2.0906803864419684E11 ; 0.0
182 ; 4.1317706854170516E7 ; 1.214057144480596E9 ; 7.8469422524430685E9 ; 2.1028204266215704E11 ; 0.0
183 ; 4.128670780323518E7 ; 1.214110073944612E9 ; 7.888259959297239E9 ; 2.1149609980663763E11 ; 0.0
184 ; 4.1267835974935494E7 ; 1.2141628048783028E9 ; 7.929546667100474E9 ; 2.1271020988058224E11 ; 0.0
185 ; 4.124423727181515E7 ; 1.2142153358211417E9 ; 7.97081450307541E9 ; 2.1392437268546054E11 ; 0.0
186 ; 4.122239557214831E7 ; 1.2142676653258214E9 ; 8.012058740347225E9 ; 2.1513858802128168E11 ; 0.0
187 ; 4.119146674986778E7 ; 1.214319791958047E9 ; 8.0532811359193735E9 ; 2.163528556866075E11 ; 0.0
188 ; 4.1176673553467855E7 ; 1.2143717142963338E9 ; 8.094472602669241E9 ; 2.1756717547856555E11 ; 0.0
189 ; 4.114543577641963E7 ; 1.214423430931815E9 ; 8.135649276222709E9 ; 2.1878154719286188E11 ; 0.0
190 ; 4.112261556324321E7 ; 1.2144749404680507E9 ; 8.176794711999128E9 ; 2.199959706237937E11 ; 0.0
191 ; 4.110001027884014E7 ; 1.2145262415208483E9 ; 8.217917327562371E9 ; 2.2121044556426175E11 ; 0.0
192 ; 4.1075609907735154E7 ; 1.2145773327180839E9 ; 8.259017337841211E9 ; 2.224249718057826E11 ; 0.0
193 ; 4.10530248581906E7 ; 1.214628212699534E9 ; 8.300092947748946E9 ; 2.2363954913850067E11 ; 0.0
194 ; 4.102726734895828E7 ; 1.2146788801167092E9 ; 8.341145972607137E9 ; 2.248541773512002E11 ; 0.0
195 ; 4.100245484771766E7 ; 1.2147293336326947E9 ; 8.382173239956095E9 ; 2.260688562313169E11 ; 0.0
196 ; 4.098704236178773E7 ; 1.214779571921996E9 ; 8.423175694803812E9 ; 2.272835855649496E11 ; 0.0
