CSV File for the Network on Day 214
1 - Minute m 
2 - Power Consumed at minute m 
3 - Power Produced at minute m 
4 - Energy Consumed since the beginning of the day 
5 - Energy Produced since the beginning of the day 
6 - Energy Lost since the beginning of the day 
 
0 ; 2459927.6056364477 ; 6.326637064307808E8 ; 0.0 ; 0.0 ; 0.0
1 ; 2502480.752251781 ; 6.335661541347759E8 ; 2459927.6056364477 ; 6.326637064307808E8 ; 0.0
2 ; 2549186.7372556347 ; 6.363226371822325E8 ; 4962408.357888229 ; 1.2662298605655565E9 ; 0.0
3 ; 2599100.6469372665 ; 6.409332427062306E8 ; 7511595.095143864 ; 1.902552497747789E9 ; 0.0
4 ; 2661782.0309213568 ; 6.473980524131768E8 ; 1.011069574208113E7 ; 2.5434857404540195E9 ; 0.0
5 ; 2734154.146559081 ; 6.557171410819527E8 ; 1.2772477773002487E7 ; 3.190883792867196E9 ; 0.0
6 ; 2830984.8505579885 ; 6.658905750775962E8 ; 1.5506631919561569E7 ; 3.8466009339491487E9 ; 0.0
7 ; 2966663.531715554 ; 6.779184109402965E8 ; 1.8337616770119555E7 ; 4.512491509026745E9 ; 0.0
8 ; 3155687.0485241385 ; 6.918006941139938E8 ; 2.130428030183511E7 ; 5.190409919967041E9 ; 0.0
9 ; 3447086.3051800407 ; 7.075374578776908E8 ; 2.4459967350359246E7 ; 5.882210614081035E9 ; 0.0
10 ; 3888106.3052554885 ; 7.251287225361147E8 ; 2.7907053655539285E7 ; 6.589748071958725E9 ; 0.0
11 ; 4578984.685262958 ; 7.44574494914728E8 ; 3.1795159960794773E7 ; 7.31487679449484E9 ; 0.0
12 ; 5690954.01577239 ; 7.658747681880679E8 ; 3.637414464605773E7 ; 8.059451289409568E9 ; 0.0
13 ; 6759568.522551468 ; 7.890295220514076E8 ; 4.206509866183012E7 ; 8.825326057597635E9 ; 0.0
14 ; 6894966.485413295 ; 8.140387232257445E8 ; 4.882466718438159E7 ; 9.614355579649042E9 ; 0.0
15 ; 6946223.187726312 ; 8.409023262671378E8 ; 5.571963366979489E7 ; 1.0428394302874786E10 ; 0.0
16 ; 7006243.365780245 ; 8.696202746353991E8 ; 6.26658568575212E7 ; 1.1269296629141924E10 ; 0.0
17 ; 7060232.302608838 ; 9.0019250196549E8 ; 6.967210022330144E7 ; 1.2138916903777323E10 ; 0.0
18 ; 7115719.196771053 ; 9.326189334785287E8 ; 7.673233252591027E7 ; 1.3039109405742813E10 ; 0.0
19 ; 7177982.033651002 ; 9.668994874681093E8 ; 8.384805172268133E7 ; 1.3971728339221342E10 ; 0.0
20 ; 7231451.934482773 ; 1.0030340768011509E9 ; 9.102603375633234E7 ; 1.4938627826689451E10 ; 0.0
21 ; 7291436.903358792 ; 1.0410226103797325E9 ; 9.82574856908151E7 ; 1.5941661903490602E10 ; 0.0
22 ; 7342724.779594204 ; 1.0808649945200312E9 ; 1.055489225941739E8 ; 1.6982684513870335E10 ; 0.0
23 ; 7402925.836483104 ; 1.1225611342153535E9 ; 1.1289164737376809E8 ; 1.8063549508390366E10 ; 0.0
24 ; 7466987.367933726 ; 1.1661109342611556E9 ; 1.202945732102512E8 ; 1.918611064260572E10 ; 0.0
25 ; 7521462.105207919 ; 1.2036425456191304E9 ; 1.2776156057818492E8 ; 2.0352221576866875E10 ; 0.0
26 ; 7575997.306639571 ; 1.2036771624601831E9 ; 1.3528302268339282E8 ; 2.1555864122486004E10 ; 0.0
27 ; 7636471.240560818 ; 1.2037133099856696E9 ; 1.428590199900324E8 ; 2.2759541284946186E10 ; 0.0
28 ; 7692574.251808493 ; 1.203750900438846E9 ; 1.5049549123059323E8 ; 2.3963254594931854E10 ; 0.0
29 ; 7747170.985198623 ; 1.2037898492664235E9 ; 1.5818806548240173E8 ; 2.51670054953707E10 ; 0.0
30 ; 7795878.339093184 ; 1.2038300754062295E9 ; 1.6593523646760035E8 ; 2.6370795344637123E10 ; 0.0
31 ; 7857995.557044843 ; 1.203871501475603E9 ; 1.7373111480669352E8 ; 2.7574625420043354E10 ; 0.0
32 ; 7909289.832547595 ; 1.2039140538756032E9 ; 1.8158911036373836E8 ; 2.877849692151896E10 ; 0.0
33 ; 7962034.747041813 ; 1.2039576628254075E9 ; 1.8949840019628596E8 ; 2.998241097539456E10 ; 0.0
34 ; 8013594.138252897 ; 1.2040022623401113E9 ; 1.9746043494332778E8 ; 3.118636863821997E10 ; 0.0
35 ; 8062890.220030254 ; 1.2040477901637762E9 ; 2.0547402908158067E8 ; 3.239037090056008E10 ; 0.0
36 ; 8109375.861116441 ; 1.2040941876680808E9 ; 2.1353691930161092E8 ; 3.3594418690723858E10 ; 0.0
37 ; 8159484.204517736 ; 1.204141399725439E9 ; 2.2164629516272736E8 ; 3.479851287839194E10 ; 0.0
38 ; 8202891.815615097 ; 1.2041893745640666E9 ; 2.2980577936724508E8 ; 3.600265427811738E10 ; 0.0
39 ; 8254961.725478031 ; 1.2042380636111465E9 ; 2.3800867118286017E8 ; 3.720684365268144E10 ; 0.0
40 ; 8295565.181033707 ; 1.204287421329126E9 ; 2.462636329083382E8 ; 3.841108171629259E10 ; 0.0
41 ; 8337229.21191859 ; 1.2043374050491333E9 ; 2.545591980893719E8 ; 3.961536913762171E10 ; 0.0
42 ; 8377601.128893923 ; 1.204387974804661E9 ; 2.6289642730129048E8 ; 4.0819706542670845E10 ; 0.0
43 ; 8420905.02394858 ; 1.2044390931679091E9 ; 2.712740284301844E8 ; 4.202409451747551E10 ; 0.0
44 ; 8449164.874241695 ; 1.2044907250905938E9 ; 2.7969493345413303E8 ; 4.322853361064342E10 ; 0.0
45 ; 8484825.483548857 ; 1.2045428377505083E9 ; 2.8814409832837474E8 ; 4.443302433573401E10 ; 0.0
46 ; 8520215.615785433 ; 1.2045954004047277E9 ; 2.966289238119236E8 ; 4.563756717348452E10 ; 0.0
47 ; 8553179.961636227 ; 1.204648384250033E9 ; 3.0514913942770904E8 ; 4.6842162573889244E10 ; 0.0
48 ; 8578035.756569762 ; 1.2047017622908533E9 ; 3.137023193893453E8 ; 4.8046810958139275E10 ; 0.0
49 ; 8604573.849246545 ; 1.2047555092148514E9 ; 3.2228035514591503E8 ; 4.925151272043013E10 ; 0.0
50 ; 8633530.21527746 ; 1.2048096012761111E9 ; 3.308849289951616E8 ; 5.045626822964498E10 ; 0.0
51 ; 8658086.281380862 ; 1.204864016185779E9 ; 3.39518459210439E8 ; 5.166107783092109E10 ; 0.0
52 ; 8675972.658946075 ; 1.2049187330099273E9 ; 3.4817654549181986E8 ; 5.2865941847106865E10 ; 0.0
53 ; 8709218.549154865 ; 1.204973732074351E9 ; 3.5685251815076596E8 ; 5.407086058011679E10 ; 0.0
54 ; 8733264.83013316 ; 1.2050289948759751E9 ; 3.6556173669992083E8 ; 5.527583431219114E10 ; 0.0
55 ; 8755520.729042696 ; 1.2050845040005171E9 ; 3.74295001530054E8 ; 5.6480863307067116E10 ; 0.0
56 ; 8777593.597307004 ; 1.2051402430460508E9 ; 3.830505222590967E8 ; 5.7685947811067635E10 ; 0.0
57 ; 8798323.480457116 ; 1.2051961965521085E9 ; 3.918281158564037E8 ; 5.8891088054113686E10 ; 0.0
58 ; 8825277.189457087 ; 1.2052523499339607E9 ; 4.0062643933686084E8 ; 6.0096284250665794E10 ; 0.0
59 ; 8844091.539614182 ; 1.2053086894217305E9 ; 4.094517165263179E8 ; 6.1301536600599754E10 ; 0.0
60 ; 8865916.892862126 ; 1.2053652020040045E9 ; 4.182958080659321E8 ; 6.2506845290021484E10 ; 0.0
61 ; 8886367.568214394 ; 1.2054218753756218E9 ; 4.2716172495879424E8 ; 6.371221049202549E10 ; 0.0
62 ; 8911585.036428764 ; 1.2054786978893368E9 ; 4.3604809252700865E8 ; 6.491763236740111E10 ; 0.0
63 ; 8925934.47545388 ; 1.2055356585110726E9 ; 4.449596775634374E8 ; 6.612311106529044E10 ; 0.0
64 ; 8949107.611505967 ; 1.205592746778492E9 ; 4.5388561203889126E8 ; 6.732864672380151E10 ; 0.0
65 ; 8975526.501570301 ; 1.2056499527626405E9 ; 4.6283471965039724E8 ; 6.853423947058E10 ; 0.0
66 ; 8993896.398853717 ; 1.2057072670324228E9 ; 4.718102461519675E8 ; 6.973988942334264E10 ; 0.0
67 ; 9011440.341105685 ; 1.2057646806217003E9 ; 4.8080414255082124E8 ; 7.094559669037506E10 ; 0.0
68 ; 9033029.012605397 ; 1.2058221849988012E9 ; 4.8981558289192694E8 ; 7.215136137099677E10 ; 0.0
69 ; 9048986.310304247 ; 1.205879772038267E9 ; 4.988486119045323E8 ; 7.335718355599556E10 ; 0.0
70 ; 9070862.7929832 ; 1.2059374339946482E9 ; 5.0789759821483654E8 ; 7.456306332803383E10 ; 0.0
71 ; 9088961.07589792 ; 1.2059951634782069E9 ; 5.169684610078197E8 ; 7.576900076202847E10 ; 0.0
72 ; 9109633.726500684 ; 1.2060529534323642E9 ; 5.2605742208371764E8 ; 7.697499592550668E10 ; 0.0
73 ; 9125341.751723927 ; 1.2061107971127677E9 ; 5.3516705581021833E8 ; 7.818104887893904E10 ; 0.0
74 ; 9144217.120884657 ; 1.2061686880678463E9 ; 5.442923975619422E8 ; 7.93871596760518E10 ; 0.0
75 ; 9163853.307120131 ; 1.2062266201207469E9 ; 5.534366146828269E8 ; 8.059332836411964E10 ; 0.0
76 ; 9180200.747297587 ; 1.2062845873525348E9 ; 5.62600467989947E8 ; 8.179955498424039E10 ; 0.0
77 ; 9194713.737550685 ; 1.2063425840865734E9 ; 5.717806687372446E8 ; 8.300583957159293E10 ; 0.0
78 ; 9203324.273880271 ; 1.2064006048739855E9 ; 5.809753824747953E8 ; 8.42121821556795E10 ; 0.0
79 ; 9206371.474335922 ; 1.2064586444801152E9 ; 5.901787067486756E8 ; 8.54185827605535E10 ; 0.0
80 ; 9203178.343630023 ; 1.2065166978719194E9 ; 5.993850782230115E8 ; 8.662504140503362E10 ; 0.0
81 ; 9211290.708371986 ; 1.206574760206211E9 ; 6.085882565666416E8 ; 8.783155810290553E10 ; 0.0
82 ; 9215792.62193038 ; 1.2066328268187E9 ; 6.177995472750136E8 ; 8.903813286311174E10 ; 0.0
83 ; 9218171.144310296 ; 1.2066908932137625E9 ; 6.270153398969439E8 ; 9.024476568993044E10 ; 0.0
84 ; 9217577.514267351 ; 1.206748955054894E9 ; 6.362335110412543E8 ; 9.14514565831442E10 ; 0.0
85 ; 9225406.312553894 ; 1.2068070081557894E9 ; 6.454510885555216E8 ; 9.26582055381991E10 ; 0.0
86 ; 9229131.50890169 ; 1.2068650484720054E9 ; 6.546764948680755E8 ; 9.386501254635489E10 ; 0.0
87 ; 9227248.45156053 ; 1.2069230720931675E9 ; 6.639056263769772E8 ; 9.507187759482689E10 ; 0.0
88 ; 9223253.28350672 ; 1.2069810752356768E9 ; 6.731328748285377E8 ; 9.627880066692006E10 ; 0.0
89 ; 9227139.694045201 ; 1.2070390542358816E9 ; 6.823561281120445E8 ; 9.748578174215573E10 ; 0.0
90 ; 9232003.397195462 ; 1.2070970055436845E9 ; 6.915832678060896E8 ; 9.869282079639162E10 ; 0.0
91 ; 9231700.150124097 ; 1.2071549257165508E9 ; 7.008152712032851E8 ; 9.98999178019353E10 ; 0.0
92 ; 9230200.925132945 ; 1.2072128114138908E9 ; 7.100469713534092E8 ; 1.0110707272765186E11 ; 0.0
93 ; 9231731.553151608 ; 1.2072706593917904E9 ; 7.192771722785422E8 ; 1.0231428553906575E11 ; 0.0
94 ; 9230086.811963797 ; 1.2073284664980636E9 ; 7.285089038316938E8 ; 1.0352155619845753E11 ; 0.0
95 ; 9231332.274641894 ; 1.2073862296676106E9 ; 7.377389906436576E8 ; 1.047288846649556E11 ; 0.0
96 ; 9228511.988602791 ; 1.207443945918054E9 ; 7.469703229182994E8 ; 1.0593627089462321E11 ; 0.0
97 ; 9224091.7422068 ; 1.2075016123456366E9 ; 7.561988349069022E8 ; 1.0714371484054128E11 ; 0.0
98 ; 9229495.795743804 ; 1.2075592261213653E9 ; 7.65422926649109E8 ; 1.0835121645288692E11 ; 0.0
99 ; 9223867.051111862 ; 1.207616784487383E9 ; 7.746524224448528E8 ; 1.0955877567900829E11 ; 0.0
100 ; 9220260.77105689 ; 1.2076742847535508E9 ; 7.838762894959646E8 ; 1.1076639246349567E11 ; 0.0
101 ; 9222472.890206652 ; 1.2077317242942328E9 ; 7.930965502670215E8 ; 1.1197406674824922E11 ; 0.0
102 ; 9216763.985549487 ; 1.2077891005452633E9 ; 8.023190231572282E8 ; 1.1318179847254346E11 ; 0.0
103 ; 9214718.333594106 ; 1.2078464110010917E9 ; 8.115357871427777E8 ; 1.1438958757308871E11 ; 0.0
104 ; 9213502.791690806 ; 1.2079036532120843E9 ; 8.207505054763718E8 ; 1.1559743398408981E11 ; 0.0
105 ; 9207749.710506579 ; 1.207960824781984E9 ; 8.299640082680626E8 ; 1.168053376373019E11 ; 0.0
106 ; 9203955.821432034 ; 1.208017923365511E9 ; 8.391717579785691E8 ; 1.1801329846208388E11 ; 0.0
107 ; 9199164.685995307 ; 1.2080749466660929E9 ; 8.483757138000011E8 ; 1.1922131638544939E11 ; 0.0
108 ; 9195838.721205134 ; 1.2081318924337275E9 ; 8.575748784859965E8 ; 1.2042939133211548E11 ; 0.0
109 ; 9189771.58228082 ; 1.2081887584629557E9 ; 8.667707172072016E8 ; 1.2163752322454921E11 ; 0.0
110 ; 9187678.013829889 ; 1.208245542590949E9 ; 8.759604887894825E8 ; 1.2284571198301216E11 ; 0.0
111 ; 9185315.203730935 ; 1.2083022426957E9 ; 8.851481668033124E8 ; 1.240539575256031E11 ; 0.0
112 ; 9176038.367288874 ; 1.2083588566943069E9 ; 8.943334820070434E8 ; 1.252622597682988E11 ; 0.0
113 ; 9169469.831441298 ; 1.2084153825413544E9 ; 9.035095203743322E8 ; 1.264706186249931E11 ; 0.0
114 ; 9165374.368246252 ; 1.2084718182273755E9 ; 9.126789902057735E8 ; 1.2767903400753445E11 ; 0.0
115 ; 9157861.87126848 ; 1.2085281617773967E9 ; 9.218443645740197E8 ; 1.2888750582576183E11 ; 0.0
116 ; 9150693.049946327 ; 1.2085844112495594E9 ; 9.310022264452882E8 ; 1.3009603398753922E11 ; 0.0
117 ; 9144237.215857709 ; 1.2086405647338111E9 ; 9.401529194952345E8 ; 1.3130461839878877E11 ; 0.0
118 ; 9137468.448756777 ; 1.208696620350664E9 ; 9.492971567110922E8 ; 1.3251325896352258E11 ; 0.0
119 ; 9132906.804570809 ; 1.2087525762500198E9 ; 9.58434625159849E8 ; 1.3372195558387325E11 ; 0.0
120 ; 9126960.982834212 ; 1.2088084306100504E9 ; 9.675675319644198E8 ; 1.3493070816012326E11 ; 0.0
121 ; 9116799.16036481 ; 1.208864181636138E9 ; 9.766944929472541E8 ; 1.361395165907333E11 ; 0.0
122 ; 9104815.117604453 ; 1.2089198275598664E9 ; 9.858112921076189E8 ; 1.3734838077236945E11 ; 0.0
123 ; 9101098.5335773 ; 1.2089753666380641E9 ; 9.949161072252234E8 ; 1.3855730059992932E11 ; 0.0
124 ; 9089392.455160018 ; 1.2090307971518934E9 ; 1.0040172057588007E9 ; 1.3976627596656738E11 ; 0.0
125 ; 9078696.740445437 ; 1.2090861174059846E9 ; 1.0131065982139608E9 ; 1.4097530676371927E11 ; 0.0
126 ; 9073170.824407183 ; 1.2091413257276144E9 ; 1.0221852949544063E9 ; 1.4218439288112524E11 ; 0.0
127 ; 9061686.843286525 ; 1.2091964204659204E9 ; 1.0312584657788135E9 ; 1.4339353420685284E11 ; 0.0
128 ; 9054853.153746307 ; 1.2092513999911575E9 ; 1.0403201526221E9 ; 1.4460273062731876E11 ; 0.0
129 ; 9044204.10381341 ; 1.2093062626939876E9 ; 1.0493750057758462E9 ; 1.458119820273099E11 ; 0.0
130 ; 9025356.478513282 ; 1.209361006984803E9 ; 1.0584192098796597E9 ; 1.470212882900039E11 ; 0.0
131 ; 9005058.503052982 ; 1.2094156312930841E9 ; 1.0674445663581729E9 ; 1.482306492969887E11 ; 0.0
132 ; 8974211.997622386 ; 1.2094701340667853E9 ; 1.0764496248612258E9 ; 1.494400649282818E11 ; 0.0
133 ; 8952501.517006231 ; 1.2095245137717502E9 ; 1.0854238368588483E9 ; 1.5064953506234857E11 ; 0.0
134 ; 8930481.502873497 ; 1.2095787688911548E9 ; 1.0943763383758545E9 ; 1.5185905957612033E11 ; 0.0
135 ; 8905844.04389692 ; 1.2096328979249754E9 ; 1.103306819878728E9 ; 1.5306863834501147E11 ; 0.0
136 ; 8879438.92895356 ; 1.2096868993894815E9 ; 1.1122126639226248E9 ; 1.5427827124293646E11 ; 0.0
137 ; 8859454.748839187 ; 1.2097407718167536E9 ; 1.1210921028515785E9 ; 1.5548795814232596E11 ; 0.0
138 ; 8834573.607422855 ; 1.2097945137542198E9 ; 1.1299515576004176E9 ; 1.566976989141427E11 ; 0.0
139 ; 8806701.022328759 ; 1.2098481237642155E9 ; 1.1387861312078404E9 ; 1.579074934278969E11 ; 0.0
140 ; 8777598.351807207 ; 1.2099016004235635E9 ; 1.1475928322301693E9 ; 1.5911734155166113E11 ; 0.0
141 ; 8752272.664355425 ; 1.2099549423231711E9 ; 1.1563704305819764E9 ; 1.603272431520847E11 ; 0.0
142 ; 8731540.925228117 ; 1.2100081480676477E9 ; 1.165122703246332E9 ; 1.6153719809440787E11 ; 0.0
143 ; 8694514.140747812 ; 1.210061216274936E9 ; 1.17385424417156E9 ; 1.6274720624247552E11 ; 0.0
144 ; 8669059.782256886 ; 1.2101141455759633E9 ; 1.1825487583123078E9 ; 1.6395726745875046E11 ; 0.0
145 ; 8664385.105210293 ; 1.2101669346143055E9 ; 1.1912178180945647E9 ; 1.6516738160432642E11 ; 0.0
146 ; 8646999.76841798 ; 1.2102195820458674E9 ; 1.199882203199775E9 ; 1.6637754853894073E11 ; 0.0
147 ; 8640579.734317478 ; 1.2102720865385756E9 ; 1.208529202968193E9 ; 1.675877681209866E11 ; 0.0
148 ; 8632746.648098743 ; 1.210324446772087E9 ; 1.2171697827025106E9 ; 1.6879804020752518E11 ; 0.0
149 ; 8620666.791200852 ; 1.2103766614375067E9 ; 1.2258025293506093E9 ; 1.7000836465429727E11 ; 0.0
150 ; 8614449.397952482 ; 1.210428729237121E9 ; 1.2344231961418102E9 ; 1.7121874131573477E11 ; 0.0
151 ; 8597180.600503802 ; 1.2104806488841414E9 ; 1.2430376455397627E9 ; 1.724291700449719E11 ; 0.0
152 ; 8586600.651203148 ; 1.210532419102458E9 ; 1.2516348261402664E9 ; 1.7363965069385605E11 ; 0.0
153 ; 8576923.709077116 ; 1.2105840386264033E9 ; 1.2602214267914696E9 ; 1.748501831129585E11 ; 0.0
154 ; 8566717.71198498 ; 1.2106355062005308E9 ; 1.2687983505005467E9 ; 1.760607671515849E11 ; 0.0
155 ; 8552901.729195789 ; 1.2106868205793958E9 ; 1.2773650682125316E9 ; 1.7727140265778543E11 ; 0.0
156 ; 8543030.458001748 ; 1.2107379805273507E9 ; 1.2859179699417274E9 ; 1.7848208947836484E11 ; 0.0
157 ; 8528038.363727085 ; 1.2107889848183472E9 ; 1.2944610003997293E9 ; 1.7969282745889218E11 ; 0.0
158 ; 8523700.49578124 ; 1.2108398322357466E9 ; 1.3029890387634563E9 ; 1.8090361644371054E11 ; 0.0
159 ; 8513202.769106062 ; 1.2108905215721388E9 ; 1.3115127392592375E9 ; 1.821144562759463E11 ; 0.0
160 ; 8503381.06187161 ; 1.2109410516291676E9 ; 1.3200259420283437E9 ; 1.8332534679751843E11 ; 0.0
161 ; 8496323.730470473 ; 1.2109914212173645E9 ; 1.3285293230902152E9 ; 1.845362878491476E11 ; 0.0
162 ; 8482272.255626356 ; 1.2110416291559906E9 ; 1.3370256468206856E9 ; 1.85747279270365E11 ; 0.0
163 ; 8465444.378839679 ; 1.21109167427288E9 ; 1.345507919076312E9 ; 1.86958320899521E11 ; 0.0
164 ; 8459065.227648146 ; 1.2111415554042966E9 ; 1.3539733634551518E9 ; 1.8816941257379388E11 ; 0.0
165 ; 8444996.961919893 ; 1.2111912713947914E9 ; 1.3624324286828E9 ; 1.8938055412919818E11 ; 0.0
166 ; 8434188.385688424 ; 1.2112408210970683E9 ; 1.3708774256447198E9 ; 1.90591745400593E11 ; 0.0
167 ; 8423660.273368247 ; 1.2112902033718548E9 ; 1.3793116140304084E9 ; 1.9180298622169006E11 ; 0.0
168 ; 8414142.39916556 ; 1.2113394170877774E9 ; 1.3877352743037767E9 ; 1.9301427642506192E11 ; 0.0
169 ; 8404780.82659295 ; 1.211388461121244E9 ; 1.3961494167029424E9 ; 1.942256158421497E11 ; 0.0
170 ; 8391352.644315958 ; 1.2114373343563278E9 ; 1.4045541975295353E9 ; 1.9543700430327094E11 ; 0.0
171 ; 8379560.285460515 ; 1.2114860356846607E9 ; 1.4129455501738513E9 ; 1.9664844163762726E11 ; 0.0
172 ; 8365820.266090131 ; 1.2115345640053253E9 ; 1.4213251104593117E9 ; 1.9785992767331192E11 ; 0.0
173 ; 8357516.277375463 ; 1.2115829182247572E9 ; 1.4296909307254019E9 ; 1.9907146223731726E11 ; 0.0
174 ; 8348690.302088707 ; 1.2116310972566457E9 ; 1.4380484470027773E9 ; 2.0028304515554202E11 ; 0.0
175 ; 8344357.55363041 ; 1.2116791000218434E9 ; 1.446397137304866E9 ; 2.0149467625279868E11 ; 0.0
176 ; 8332308.533686598 ; 1.2117269254482765E9 ; 1.4547414948584964E9 ; 2.0270635535282053E11 ; 0.0
177 ; 8330205.550502008 ; 1.2117745724708598E9 ; 1.463073803392183E9 ; 2.039180822782688E11 ; 0.0
178 ; 8317650.250034067 ; 1.211822040031415E9 ; 1.4714040089426851E9 ; 2.0512985685073965E11 ; 0.0
179 ; 8307474.327371115 ; 1.2118693270785916E9 ; 1.4797216591927192E9 ; 2.0634167889077106E11 ; 0.0
180 ; 8312003.649123211 ; 1.211916432567793E9 ; 1.4880291335200903E9 ; 2.0755354821784964E11 ; 0.0
181 ; 8296801.9055756405 ; 1.2119633554611034E9 ; 1.4963411371692135E9 ; 2.0876546465041742E11 ; 0.0
182 ; 8282740.808051407 ; 1.2120100947272189E9 ; 1.5046379390747893E9 ; 2.099774280058785E11 ; 0.0
183 ; 8284942.940071313 ; 1.212056649341382E9 ; 1.5129206798828406E9 ; 2.1118943810060574E11 ; 0.0
184 ; 8271180.782948858 ; 1.212103018285316E9 ; 1.521205622822912E9 ; 2.124014947499471E11 ; 0.0
185 ; 8265263.716911581 ; 1.2121492005471666E9 ; 1.529476803605861E9 ; 2.1361359776823242E11 ; 0.0
186 ; 8256495.30956871 ; 1.212195195121441E9 ; 1.5377420673227725E9 ; 2.148257469687796E11 ; 0.0
187 ; 8249804.554026717 ; 1.2122410010089526E9 ; 1.5459985626323411E9 ; 2.1603794216390103E11 ; 0.0
188 ; 8244230.844965146 ; 1.212286617216769E9 ; 1.5542483671863678E9 ; 2.1725018316490997E11 ; 0.0
189 ; 8233560.015020398 ; 1.2123320427581573E9 ; 1.562492598031333E9 ; 2.1846246978212674E11 ; 0.0
190 ; 8226881.898281886 ; 1.2123772766525373E9 ; 1.5707261580463533E9 ; 2.196748018248849E11 ; 0.0
191 ; 8217284.979214351 ; 1.2124223179254327E9 ; 1.5789530399446352E9 ; 2.208871791015374E11 ; 0.0
192 ; 8206096.797100529 ; 1.2124671656084259E9 ; 1.5871703249238496E9 ; 2.2209960141946286E11 ; 0.0
193 ; 8205004.536369922 ; 1.2125118187391157E9 ; 1.5953764217209501E9 ; 2.233120685850713E11 ; 0.0
194 ; 8198113.8821566375 ; 1.212556276361074E9 ; 1.6035814262573202E9 ; 2.245245804038104E11 ; 0.0
195 ; 8186554.184804451 ; 1.2126005375238063E9 ; 1.6117795401394768E9 ; 2.2573713668017148E11 ; 0.0
196 ; 8177440.436018147 ; 1.2126446012827148E9 ; 1.6199660943242812E9 ; 2.2694973721769528E11 ; 0.0
197 ; 8171488.885557026 ; 1.2126884666990607E9 ; 1.6281435347602994E9 ; 2.28162381818978E11 ; 0.0
198 ; 8161686.085499549 ; 1.2127321328399282E9 ; 1.6363150236458564E9 ; 2.2937507028567706E11 ; 0.0
199 ; 8157436.50092045 ; 1.2127755987781935E9 ; 1.644476709731356E9 ; 2.30587802418517E11 ; 0.0
200 ; 8150665.7065087 ; 1.2128188635924911E9 ; 1.6526341462322764E9 ; 2.318005780172952E11 ; 0.0
201 ; 8140073.961736437 ; 1.110545778123395E9 ; 1.660784811938785E9 ; 2.330133968808877E11 ; 0.0
