CSV File for the Network on Day 320
1 - Minute m 
2 - Power Consumed at minute m 
3 - Power Produced at minute m 
4 - Energy Consumed since the beginning of the day 
5 - Energy Produced since the beginning of the day 
6 - Energy Lost since the beginning of the day 
 
0 ; 3.891823149055424E7 ; 6.377525917958328E8 ; 0.0 ; 0.0 ; 0.0
1 ; 3.896277467040831E7 ; 6.386625035353627E8 ; 3.891823149055424E7 ; 6.377525917958328E8 ; 0.0
2 ; 3.900411744329486E7 ; 6.414259173596443E8 ; 7.788100616096255E7 ; 1.2764150953311954E9 ; 0.0
3 ; 3.904955634548101E7 ; 6.460428449141817E8 ; 1.168851236042574E8 ; 1.9178410126908398E9 ; 0.0
4 ; 3.9099573009672076E7 ; 6.525132965779843E8 ; 1.559346799497384E8 ; 2.5638838576050215E9 ; 0.0
5 ; 3.9182888857449815E7 ; 6.608372814257925E8 ; 1.950342529594105E8 ; 3.216397154183006E9 ; 0.0
6 ; 3.92777301303207E7 ; 6.710148071946393E8 ; 2.3421714181686032E8 ; 3.877234435608798E9 ; 0.0
7 ; 3.941010443241626E7 ; 6.830458802550461E8 ; 2.73494871947181E8 ; 4.548249242803437E9 ; 0.0
8 ; 3.95953036707493E7 ; 6.969305055870924E8 ; 3.1290497637959725E8 ; 5.231295123058483E9 ; 0.0
9 ; 3.9882178478722475E7 ; 7.126686867615806E8 ; 3.5250028005034655E8 ; 5.928225628645576E9 ; 0.0
10 ; 4.031768969097309E7 ; 7.302604259264572E8 ; 3.92382458529069E8 ; 6.640894315407156E9 ; 0.0
11 ; 4.101437323739366E7 ; 7.497057237986178E8 ; 4.327001482200421E8 ; 7.371154741333613E9 ; 0.0
12 ; 4.211519058766095E7 ; 7.710045796611667E8 ; 4.737145214574358E8 ; 8.120860465132231E9 ; 0.0
13 ; 4.3178551487638906E7 ; 7.941569913661572E8 ; 5.1582971204509676E8 ; 8.891865044793398E9 ; 0.0
14 ; 4.331117606005617E7 ; 8.191629553427875E8 ; 5.590082635327357E8 ; 9.686022036159555E9 ; 0.0
15 ; 4.336121581436737E7 ; 8.460224666109774E8 ; 6.023194395927919E8 ; 1.0505184991502342E10 ; 0.0
16 ; 4.341151715941625E7 ; 8.747355188002067E8 ; 6.456806554071593E8 ; 1.135120745811332E10 ; 0.0
17 ; 4.347093977117482E7 ; 9.053021041734408E8 ; 6.890921725665755E8 ; 1.2225942976913527E10 ; 0.0
18 ; 4.352169997250738E7 ; 9.377222136559407E8 ; 7.325631123377503E8 ; 1.3131245081086967E10 ; 0.0
19 ; 4.35763910194053E7 ; 9.719958368686961E8 ; 7.760848123102577E8 ; 1.4068967294742908E10 ; 0.0
20 ; 4.362002166363617E7 ; 1.0081229621662029E9 ; 8.196612033296629E8 ; 1.5040963131611605E10 ; 0.0
21 ; 4.367481131920267E7 ; 1.0461035766782581E9 ; 8.632812249932991E8 ; 1.6049086093777807E10 ; 0.0
22 ; 4.372855007210407E7 ; 1.0859376663554296E9 ; 9.069560363125018E8 ; 1.7095189670456066E10 ; 0.0
23 ; 4.3785491903083555E7 ; 1.1276252160178342E9 ; 9.506845863846059E8 ; 1.8181127336811497E10 ; 0.0
24 ; 4.383932351667764E7 ; 1.17116620940683E9 ; 9.944700782876894E8 ; 1.930875255282933E10 ; 0.0
25 ; 4.389172782836475E7 ; 1.2086888746283429E9 ; 1.0383094018043671E9 ; 2.047991876223616E10 ; 0.0
26 ; 4.394861235982312E7 ; 1.208714480430578E9 ; 1.082201129632732E9 ; 2.1688607636864502E10 ; 0.0
27 ; 4.399724548650914E7 ; 1.2087416234114976E9 ; 1.1261497419925551E9 ; 2.289732211729508E10 ; 0.0
28 ; 4.4046918117748015E7 ; 1.2087702835588298E9 ; 1.1701469874790642E9 ; 2.4106063740706577E10 ; 0.0
29 ; 4.4101280952627935E7 ; 1.208800440069831E9 ; 1.2141939055968122E9 ; 2.5314834024265408E10 ; 0.0
30 ; 4.414205331755862E7 ; 1.2088320714121232E9 ; 1.2582951865494401E9 ; 2.652363446433524E10 ; 0.0
31 ; 4.419748851087026E7 ; 1.2088651553847039E9 ; 1.3024372398669987E9 ; 2.7732466535747364E10 ; 0.0
32 ; 4.4242981596192956E7 ; 1.208899669178782E9 ; 1.346634728377869E9 ; 2.894133169113207E10 ; 0.0
33 ; 4.429742792747803E7 ; 1.2089355894381166E9 ; 1.390877709974062E9 ; 3.0150231360310852E10 ; 0.0
34 ; 4.4340531233823046E7 ; 1.2089728923185549E9 ; 1.43517513790154E9 ; 3.135916694974897E10 ; 0.0
35 ; 4.438325948112017E7 ; 1.2090115535464878E9 ; 1.479515669135363E9 ; 3.2568139842067524E10 ; 0.0
36 ; 4.4422115265253305E7 ; 1.2090515484759793E9 ; 1.5238989286164832E9 ; 3.3777151395614014E10 ; 0.0
37 ; 4.446989155291288E7 ; 1.209092852144338E9 ; 1.5683210438817365E9 ; 3.498620294409E10 ; 0.0
38 ; 4.4502871124442905E7 ; 1.2091354393259363E9 ; 1.6127909354346495E9 ; 3.619529579623434E10 ; 0.0
39 ; 4.454427092720594E7 ; 1.2091792845841088E9 ; 1.6572938065590923E9 ; 3.740443123556027E10 ; 0.0
40 ; 4.458030232895185E7 ; 1.2092243623209834E9 ; 1.7018380774862983E9 ; 3.861361052014438E10 ; 0.0
41 ; 4.462158457021804E7 ; 1.2092706468251278E9 ; 1.7464183798152502E9 ; 3.982283488246536E10 ; 0.0
42 ; 4.465301469757795E7 ; 1.2093181123169208E9 ; 1.7910399643854682E9 ; 4.103210552929049E10 ; 0.0
43 ; 4.468322829389672E7 ; 1.2093667329915748E9 ; 1.8356929790830462E9 ; 4.224142364160741E10 ; 0.0
44 ; 4.4709175951943606E7 ; 1.2094164830597656E9 ; 1.8803762073769429E9 ; 4.345079037459898E10 ; 0.0
45 ; 4.474117965866265E7 ; 1.209467336785842E9 ; 1.9250853833288865E9 ; 4.466020685765875E10 ; 0.0
46 ; 4.476440903041792E7 ; 1.2095192685236032E9 ; 1.969826562987549E9 ; 4.5869674194444595E10 ; 0.0
47 ; 4.4793713026518285E7 ; 1.209572252749661E9 ; 2.014590972017967E9 ; 4.70791934629682E10 ; 0.0
48 ; 4.48149030441615E7 ; 1.2096262640944006E9 ; 2.0593846850444853E9 ; 4.8288765715717865E10 ; 0.0
49 ; 4.483970371523175E7 ; 1.2096812773705902E9 ; 2.104199588088647E9 ; 4.949839197981226E10 ; 0.0
50 ; 4.4849387352043286E7 ; 1.2097372675996773E9 ; 2.149039291803879E9 ; 5.070807325718285E10 ; 0.0
51 ; 4.486837647506804E7 ; 1.2097942100358434E9 ; 2.193888679155922E9 ; 5.191781052478253E10 ; 0.0
52 ; 4.4888561211241335E7 ; 1.2098520801878765E9 ; 2.23875705563099E9 ; 5.3127604734818375E10 ; 0.0
53 ; 4.4909728378732994E7 ; 1.2099108538389468E9 ; 2.2836456168422313E9 ; 5.433745681500625E10 ; 0.0
54 ; 4.491970807616803E7 ; 1.209970507064359E9 ; 2.3285553452209644E9 ; 5.554736766884519E10 ; 0.0
55 ; 4.493717418973769E7 ; 1.2100310162473772E9 ; 2.3734750532971325E9 ; 5.675733817590955E10 ; 0.0
56 ; 4.495380714760419E7 ; 1.2100923580932047E9 ; 2.4184122274868703E9 ; 5.796736919215693E10 ; 0.0
57 ; 4.49628152584755E7 ; 1.2101545096412168E9 ; 2.4633660346344743E9 ; 5.917746155025014E10 ; 0.0
58 ; 4.498062112740204E7 ; 1.210217448275538E9 ; 2.5083288498929496E9 ; 6.038761605989136E10 ; 0.0
59 ; 4.4995713083265886E7 ; 1.210281151734058E9 ; 2.5533094710203514E9 ; 6.159783350816689E10 ; 0.0
60 ; 4.501305752438501E7 ; 1.2103455981159813E9 ; 2.598305184103617E9 ; 6.280811465990095E10 ; 0.0
61 ; 4.501718129364744E7 ; 1.2104107658880043E9 ; 2.643318241628002E9 ; 6.401846025801693E10 ; 0.0
62 ; 4.503592128203486E7 ; 1.210476633889208E9 ; 2.6883354229216495E9 ; 6.522887102390494E10 ; 0.0
63 ; 4.504682963390247E7 ; 1.2105431813347595E9 ; 2.7333713442036843E9 ; 6.643934765779414E10 ; 0.0
64 ; 4.506489006395826E7 ; 1.2106103878185058E9 ; 2.778418173837587E9 ; 6.764989083912891E10 ; 0.0
65 ; 4.507627451180385E7 ; 1.210678233314549E9 ; 2.823483063901545E9 ; 6.886050122694742E10 ; 0.0
66 ; 4.5090520984319374E7 ; 1.2107466981778758E9 ; 2.8685593384133487E9 ; 7.007117946026196E10 ; 0.0
67 ; 4.509558707056743E7 ; 1.2108157631441278E9 ; 2.913649859397668E9 ; 7.128192615843983E10 ; 0.0
68 ; 4.5104570804614425E7 ; 1.2108854093285813E9 ; 2.9587454464682355E9 ; 7.249274192158397E10 ; 0.0
69 ; 4.511676426985708E7 ; 1.2109556182244072E9 ; 3.00385001727285E9 ; 7.370362733091255E10 ; 0.0
70 ; 4.512639372819584E7 ; 1.211026371700282E9 ; 3.048966781542707E9 ; 7.491458294913696E10 ; 0.0
71 ; 4.513847981282727E7 ; 1.2110976519974098E9 ; 3.0940931752709026E9 ; 7.612560932083725E10 ; 0.0
72 ; 4.5147485315504126E7 ; 1.2111694417260158E9 ; 3.1392316550837297E9 ; 7.733670697283466E10 ; 0.0
73 ; 4.516106215906569E7 ; 1.2112417238613684E9 ; 3.184379140399234E9 ; 7.854787641456067E10 ; 0.0
74 ; 4.516748189374668E7 ; 1.2113144817393827E9 ; 3.2295402025582995E9 ; 7.975911813842204E10 ; 0.0
75 ; 4.517913957752398E7 ; 1.2113876990518541E9 ; 3.2747076844520464E9 ; 8.097043262016142E10 ; 0.0
76 ; 4.518227458023845E7 ; 1.2114613598413658E9 ; 3.3198868240295706E9 ; 8.218182031921327E10 ; 0.0
77 ; 4.518414496393044E7 ; 1.2115354484959202E9 ; 3.365069098609809E9 ; 8.339328167905464E10 ; 0.0
78 ; 4.51829105102583E7 ; 1.2116099497433233E9 ; 3.4102532435737395E9 ; 8.460481712755057E10 ; 0.0
79 ; 4.5173587999202535E7 ; 1.2116848486453683E9 ; 3.4554361540839977E9 ; 8.581642707729388E10 ; 0.0
80 ; 4.517399755813726E7 ; 1.2117601305918467E9 ; 3.5006097420832005E9 ; 8.702811192593925E10 ; 0.0
81 ; 4.516118228160881E7 ; 1.2118357812944202E9 ; 3.545783739641338E9 ; 8.82398720565311E10 ; 0.0
82 ; 4.5161073502957344E7 ; 1.2119117867803812E9 ; 3.5909449219229465E9 ; 8.945170783782552E10 ; 0.0
83 ; 4.515270277061398E7 ; 1.2119881333863294E9 ; 3.636105995425904E9 ; 9.06636196246059E10 ; 0.0
84 ; 4.514194578828198E7 ; 1.2120648077517853E9 ; 3.681258698196518E9 ; 9.187560775799222E10 ; 0.0
85 ; 4.513251910424999E7 ; 1.2121417968127682E9 ; 3.7264006439848E9 ; 9.3087672565744E10 ; 0.0
86 ; 4.512456512598749E7 ; 1.2122190877953496E9 ; 3.77153316308905E9 ; 9.429981436255678E10 ; 0.0
87 ; 4.511126504152719E7 ; 1.2122966682092106E9 ; 3.8166577282150373E9 ; 9.551203345035213E10 ; 0.0
88 ; 4.5104164845269024E7 ; 1.2123745258412104E9 ; 3.8617689932565646E9 ; 9.672433011856134E10 ; 0.0
89 ; 4.509921192051619E7 ; 1.2124526487489843E9 ; 3.906873158101834E9 ; 9.793670464440256E10 ; 0.0
90 ; 4.508825649585564E7 ; 1.2125310252545853E9 ; 3.95197237002235E9 ; 9.914915729315154E10 ; 0.0
91 ; 4.507364609425023E7 ; 1.212609643938177E9 ; 3.9970606265182056E9 ; 1.0036168831840613E11 ; 0.0
92 ; 4.506691893169156E7 ; 1.2126884936317925E9 ; 4.042134272612456E9 ; 1.015742979623443E11 ; 0.0
93 ; 4.505252171354878E7 ; 1.212767563413165E9 ; 4.0872011915441475E9 ; 1.0278698645597609E11 ; 0.0
94 ; 4.50466794092786E7 ; 1.212846842599639E9 ; 4.132253713257696E9 ; 1.0399975401938925E11 ; 0.0
95 ; 4.502899917229568E7 ; 1.2129263207421703E9 ; 4.1773003926669745E9 ; 1.0521260086198889E11 ; 0.0
96 ; 4.501308045385833E7 ; 1.2130059876194186E9 ; 4.22232939183927E9 ; 1.0642552718273106E11 ; 0.0
97 ; 4.5006460614713505E7 ; 1.213085833231939E9 ; 4.2673424722931285E9 ; 1.0763853317035048E11 ; 0.0
98 ; 4.498519296612524E7 ; 1.213165847796477E9 ; 4.312348932907842E9 ; 1.0885161900358241E11 ; 0.0
99 ; 4.497804674065014E7 ; 1.2132460217403693E9 ; 4.357334125873967E9 ; 1.1006478485137889E11 ; 0.0
100 ; 4.496518404170668E7 ; 1.2133263456960547E9 ; 4.402312172614617E9 ; 1.1127803087311926E11 ; 0.0
101 ; 4.4949088913794465E7 ; 1.2134068104956973E9 ; 4.447277356656324E9 ; 1.1249135721881532E11 ; 0.0
102 ; 4.493444691223386E7 ; 1.2134874071659214E9 ; 4.492226445570119E9 ; 1.1370476402931102E11 ; 0.0
103 ; 4.491635144606818E7 ; 1.2135681269226637E9 ; 4.537160892482353E9 ; 1.1491825143647694E11 ; 0.0
104 ; 4.490752015080647E7 ; 1.213648961166139E9 ; 4.582077243928421E9 ; 1.1613181956339961E11 ; 0.0
105 ; 4.4884851635835744E7 ; 1.213729901475923E9 ; 4.626984764079227E9 ; 1.1734546852456575E11 ; 0.0
106 ; 4.4872215509282626E7 ; 1.2138109396061535E9 ; 4.671869615715063E9 ; 1.1855919842604167E11 ; 0.0
107 ; 4.485539242376238E7 ; 1.213892067480842E9 ; 4.716741831224346E9 ; 1.1977300936564783E11 ; 0.0
108 ; 4.484306941202307E7 ; 1.2139732771893077E9 ; 4.7615972236481085E9 ; 1.2098690143312866E11 ; 0.0
109 ; 4.481731967398215E7 ; 1.2140545609817195E9 ; 4.806440293060131E9 ; 1.2220087471031796E11 ; 0.0
110 ; 4.4806313971220724E7 ; 1.2141359112647574E9 ; 4.851257612734114E9 ; 1.2341492927129968E11 ; 0.0
111 ; 4.478399842670672E7 ; 1.2142173205973823E9 ; 4.896063926705335E9 ; 1.2462906518256444E11 ; 0.0
112 ; 4.477172840989524E7 ; 1.2142987816867204E9 ; 4.940847925132041E9 ; 1.2584328250316182E11 ; 0.0
113 ; 4.474937881788399E7 ; 1.2143802873840523E9 ; 4.985619653541936E9 ; 1.2705758128484854E11 ; 0.0
114 ; 4.47282158067452E7 ; 1.2144618306809163E9 ; 5.03036903235982E9 ; 1.2827196157223259E11 ; 0.0
115 ; 4.4711196618969195E7 ; 1.2145434047053125E9 ; 5.075097248166566E9 ; 1.2948642340291351E11 ; 0.0
116 ; 4.469110715557154E7 ; 1.214625002718014E9 ; 5.119808444785535E9 ; 1.3070096680761882E11 ; 0.0
117 ; 4.466790892361196E7 ; 1.2147066181089802E9 ; 5.164499551941107E9 ; 1.3191559181033684E11 ; 0.0
118 ; 4.464790577098004E7 ; 1.2147882443938694E9 ; 5.209167460864718E9 ; 1.3313029842844582E11 ; 0.0
119 ; 4.462786482143924E7 ; 1.214869875210651E9 ; 5.253815366635698E9 ; 1.3434508667283969E11 ; 0.0
120 ; 4.4605813155700654E7 ; 1.2149515043163135E9 ; 5.298443231457137E9 ; 1.3555995654805034E11 ; 0.0
121 ; 4.45818699393249E7 ; 1.2150331255836666E9 ; 5.343049044612838E9 ; 1.3677490805236665E11 ; 0.0
122 ; 4.4566149550463825E7 ; 1.215114732998235E9 ; 5.387630914552163E9 ; 1.3798994117795032E11 ; 0.0
123 ; 4.45367804973955E7 ; 1.215196320655243E9 ; 5.432197064102627E9 ; 1.3920505591094855E11 ; 0.0
124 ; 4.4515846692135796E7 ; 1.2152778827566843E9 ; 5.476733844600022E9 ; 1.404202522316038E11 ; 0.0
125 ; 4.449072953758774E7 ; 1.2153594136084824E9 ; 5.521249691292158E9 ; 1.4163553011436047E11 ; 0.0
126 ; 4.446924978975932E7 ; 1.215440907617728E9 ; 5.565740420829746E9 ; 1.4285088952796896E11 ; 0.0
127 ; 4.444540582808679E7 ; 1.2155223592900023E9 ; 5.610209670619506E9 ; 1.440663304355867E11 ; 0.0
128 ; 4.442334468615169E7 ; 1.2156037632267783E9 ; 5.654655076447593E9 ; 1.452818527948767E11 ; 0.0
129 ; 4.4397869699071616E7 ; 1.2156851141228976E9 ; 5.699078421133744E9 ; 1.464974565581035E11 ; 0.0
130 ; 4.436322519883584E7 ; 1.2157664067641244E9 ; 5.743476290832816E9 ; 1.4771314167222638E11 ; 0.0
131 ; 4.433108957418009E7 ; 1.2158476360247707E9 ; 5.7878395160316515E9 ; 1.489289080789905E11 ; 0.0
132 ; 4.428371721545005E7 ; 1.2159287968653936E9 ; 5.832170605605831E9 ; 1.501447557150153E11 ; 0.0
133 ; 4.424978175360166E7 ; 1.216009884330561E9 ; 5.876454322821281E9 ; 1.5136068451188068E11 ; 0.0
134 ; 4.420762764693925E7 ; 1.2160908935466838E9 ; 5.920704104574883E9 ; 1.5257669439621124E11 ; 0.0
135 ; 4.4170181175850675E7 ; 1.2161718197199142E9 ; 5.964911732221823E9 ; 1.5379278528975793E11 ; 0.0
136 ; 4.412646721182932E7 ; 1.216252658134107E9 ; 6.009081913397674E9 ; 1.5500895710947784E11 ; 0.0
137 ; 4.408596266991614E7 ; 1.2163334041488419E9 ; 6.053208380609503E9 ; 1.5622520976761194E11 ; 0.0
138 ; 4.404799840908662E7 ; 1.2164140531975048E9 ; 6.097294343279419E9 ; 1.5744154317176077E11 ; 0.0
139 ; 4.400143686957507E7 ; 1.2164946007854285E9 ; 6.141342341688505E9 ; 1.5865795722495828E11 ; 0.0
140 ; 4.396141539473514E7 ; 1.216575042488089E9 ; 6.185343778558081E9 ; 1.598744518257437E11 ; 0.0
141 ; 4.3916382246420085E7 ; 1.216655373949355E9 ; 6.229305193952816E9 ; 1.610910268682318E11 ; 0.0
142 ; 4.387476802897918E7 ; 1.216735590879792E9 ; 6.273221576199236E9 ; 1.6230768224218115E11 ; 0.0
143 ; 4.3831265484792046E7 ; 1.216815689055017E9 ; 6.317096344228215E9 ; 1.6352441783306094E11 ; 0.0
144 ; 4.379082308780045E7 ; 1.2168956643141026E9 ; 6.360927609713007E9 ; 1.6474123352211597E11 ; 0.0
145 ; 4.376567954670951E7 ; 1.2169755125580292E9 ; 6.404718432800807E9 ; 1.6595812918643008E11 ; 0.0
146 ; 4.3733929625188485E7 ; 1.217055229748185E9 ; 6.448484112347516E9 ; 1.671751046989881E11 ; 0.0
147 ; 4.3712022171481326E7 ; 1.21713481190491E9 ; 6.492218041972705E9 ; 1.683921599287363E11 ; 0.0
148 ; 4.365840678216732E7 ; 1.2172142551060846E9 ; 6.535930064144186E9 ; 1.696092947406412E11 ; 0.0
149 ; 4.35734027670905E7 ; 1.2172935554857616E9 ; 6.579588470926353E9 ; 1.7082650899574728E11 ; 0.0
150 ; 4.348977399549862E7 ; 1.2173727092328372E9 ; 6.623161873693444E9 ; 1.7204380255123303E11 ; 0.0
151 ; 4.3396020577864416E7 ; 1.2174517125897644E9 ; 6.666651647688943E9 ; 1.7326117526046588E11 ; 0.0
152 ; 4.3313089640993E7 ; 1.2175305618513033E9 ; 6.710047668266808E9 ; 1.7447862697305563E11 ; 0.0
153 ; 4.323502086235273E7 ; 1.2176092533633113E9 ; 6.753360757907801E9 ; 1.7569615753490695E11 ; 0.0
154 ; 4.315606815009086E7 ; 1.2176877835215669E9 ; 6.796595778770153E9 ; 1.7691376678827026E11 ; 0.0
155 ; 4.3062051745556526E7 ; 1.21776614877063E9 ; 6.839751846920244E9 ; 1.7813145457179184E11 ; 0.0
156 ; 4.297978827269148E7 ; 1.217844345602737E9 ; 6.882813898665801E9 ; 1.7934922072056247E11 ; 0.0
157 ; 4.289334420105419E7 ; 1.2179223705567298E9 ; 6.925793686938493E9 ; 1.805670650661652E11 ; 0.0
158 ; 4.280607987583483E7 ; 1.2180002202170126E9 ; 6.968687031139547E9 ; 1.8178498743672192E11 ; 0.0
159 ; 4.272316118898314E7 ; 1.218077891212546E9 ; 7.011493111015382E9 ; 1.8300298765693893E11 ; 0.0
160 ; 4.263458314104234E7 ; 1.2181553802158656E9 ; 7.054216272204365E9 ; 1.842210655481515E11 ; 0.0
161 ; 4.2547897471598655E7 ; 1.2182326839421332E9 ; 7.0968508553454075E9 ; 1.8543922092836734E11 ; 0.0
162 ; 4.2461799819191165E7 ; 1.2183097991482153E9 ; 7.139398752817006E9 ; 1.8665745361230948E11 ; 0.0
163 ; 4.237377250544089E7 ; 1.218386722631789E9 ; 7.181860552636197E9 ; 1.878757634114577E11 ; 0.0
164 ; 4.228461228355938E7 ; 1.218463451230474E9 ; 7.224234325141638E9 ; 1.8909415013408948E11 ; 0.0
165 ; 4.219961354114112E7 ; 1.2185399818209915E9 ; 7.266518937425198E9 ; 1.9031261358531995E11 ; 0.0
166 ; 4.2114591177454256E7 ; 1.2186163113183465E9 ; 7.308718550966339E9 ; 1.9153115356714093E11 ; 0.0
167 ; 4.203110947493304E7 ; 1.218692436675035E9 ; 7.350833142143793E9 ; 1.927497698784593E11 ; 0.0
168 ; 4.193355538401519E7 ; 1.2187683548802757E9 ; 7.392864251618726E9 ; 1.9396846231513434E11 ; 0.0
169 ; 4.184656879013538E7 ; 1.2188440629592614E9 ; 7.434797807002741E9 ; 1.9518723067001462E11 ; 0.0
170 ; 4.1763373519025624E7 ; 1.218919557972436E9 ; 7.476644375792876E9 ; 1.9640607473297388E11 ; 0.0
171 ; 4.167134087728465E7 ; 1.21899483701479E9 ; 7.518407749311902E9 ; 1.9762499429094632E11 ; 0.0
172 ; 4.1590997126948714E7 ; 1.2190698972151783E9 ; 7.560079090189187E9 ; 1.9884398912796112E11 ; 0.0
173 ; 4.150342843945664E7 ; 1.2191447357356565E9 ; 7.601670087316135E9 ; 2.000630590251763E11 ; 0.0
174 ; 4.143575114255148E7 ; 1.219219349770838E9 ; 7.643173515755592E9 ; 2.0128220376091196E11 ; 0.0
175 ; 4.13498244635579E7 ; 1.219293736547269E9 ; 7.684609266898144E9 ; 2.025014231106828E11 ; 0.0
176 ; 4.127239301685753E7 ; 1.2193678933228226E9 ; 7.725959091361702E9 ; 2.0372071684723007E11 ; 0.0
177 ; 4.120325603652343E7 ; 1.2194E9 ; 7.767231484378559E9 ; 2.049400847405529E11 ; 0.0
178 ; 4.11263407611524E7 ; 1.2194E9 ; 7.808434740415083E9 ; 2.061594847405529E11 ; 0.0
179 ; 4.104915537749779E7 ; 1.2194E9 ; 7.849561081176235E9 ; 2.073788847405529E11 ; 0.0
180 ; 4.09790627381318E7 ; 1.2194E9 ; 7.890610236553733E9 ; 2.085982847405529E11 ; 0.0
181 ; 4.089878296636246E7 ; 1.2194E9 ; 7.931589299291864E9 ; 2.098176847405529E11 ; 0.0
182 ; 4.082623343430387E7 ; 1.2194E9 ; 7.972488082258226E9 ; 2.110370847405529E11 ; 0.0
183 ; 4.07404981984301E7 ; 1.2194E9 ; 8.013314315692531E9 ; 2.122564847405529E11 ; 0.0
184 ; 4.0668442098477334E7 ; 1.2194E9 ; 8.054054813890961E9 ; 2.134758847405529E11 ; 0.0
185 ; 4.059696737474426E7 ; 1.2194E9 ; 8.094723255989438E9 ; 2.146952847405529E11 ; 0.0
186 ; 4.051807728600367E7 ; 1.2194E9 ; 8.135320223364182E9 ; 2.159146847405529E11 ; 0.0
187 ; 4.043717462138937E7 ; 1.2194E9 ; 8.175838300650187E9 ; 2.171340847405529E11 ; 0.0
188 ; 4.036558276550339E7 ; 1.2194E9 ; 8.216275475271576E9 ; 2.183534847405529E11 ; 0.0
189 ; 4.028560708393338E7 ; 1.2194E9 ; 8.256641058037079E9 ; 2.195728847405529E11 ; 0.0
190 ; 4.021269861355783E7 ; 1.2194E9 ; 8.296926665121013E9 ; 2.207922847405529E11 ; 0.0
191 ; 4.013792285545316E7 ; 1.2194E9 ; 8.3371393637345705E9 ; 2.220116847405529E11 ; 0.0
192 ; 4.006306021981852E7 ; 1.2194E9 ; 8.377277286590024E9 ; 2.232310847405529E11 ; 0.0
193 ; 3.99835897071961E7 ; 1.2194E9 ; 8.417340346809842E9 ; 2.244504847405529E11 ; 0.0
194 ; 3.990637837952252E7 ; 1.2194E9 ; 8.457323936517038E9 ; 2.256698847405529E11 ; 0.0
195 ; 3.983553189516764E7 ; 1.2194E9 ; 8.497230314896561E9 ; 2.268892847405529E11 ; 0.0
196 ; 3.975157401889875E7 ; 1.2194E9 ; 8.537065846791728E9 ; 2.281086847405529E11 ; 0.0
197 ; 3.968053678875185E7 ; 1.2194E9 ; 8.576817420810627E9 ; 2.293280847405529E11 ; 0.0
198 ; 3.9598789465829834E7 ; 1.2012890628904452E9 ; 8.616497957599379E9 ; 2.305474847405529E11 ; 0.0
199 ; 3.952907249161847E7 ; 1.1269909820818348E9 ; 8.656096747065208E9 ; 2.3174877380344333E11 ; 0.0
