CSV File for the Network on Day 78
1 - Minute m 
2 - Power Consumed at minute m 
3 - Power Produced at minute m 
4 - Energy Consumed since the beginning of the day 
5 - Energy Produced since the beginning of the day 
6 - Energy Lost since the beginning of the day 
 
0 ; 3.854556369943834E7 ; 6.347618697944301E8 ; 0.0 ; 0.0 ; 0.0
1 ; 3.8582531265347585E7 ; 6.356724907293624E8 ; 3.854556369943834E7 ; 6.347618697944301E8 ; 0.0
2 ; 3.861654495550521E7 ; 6.384365186799389E8 ; 7.712809496478593E7 ; 1.2704343605237925E9 ; 0.0
3 ; 3.867127991093088E7 ; 6.430539717934138E8 ; 1.1574463992029114E8 ; 1.9088708792037315E9 ; 0.0
4 ; 3.872205791884236E7 ; 6.495248663599635E8 ; 1.5441591983122203E8 ; 2.551924850997145E9 ; 0.0
5 ; 3.879131544838938E7 ; 6.578492167133594E8 ; 1.9313797775006437E8 ; 3.2014497173571086E9 ; 0.0
6 ; 3.888388608084493E7 ; 6.680270351417114E8 ; 2.3192929319845375E8 ; 3.859298934070468E9 ; 0.0
7 ; 3.901364350806664E7 ; 6.800583318095665E8 ; 2.7081317927929866E8 ; 4.527325969212179E9 ; 0.0
8 ; 3.9198299017318025E7 ; 6.93943114692491E8 ; 3.098268227873653E8 ; 5.207384301021746E9 ; 0.0
9 ; 3.9480681798160605E7 ; 7.096813895251257E8 ; 3.490251218046833E8 ; 5.901327415714237E9 ; 0.0
10 ; 3.991644615850793E7 ; 7.272731597634962E8 ; 3.8850580360284394E8 ; 6.611008805239363E9 ; 0.0
11 ; 4.0604357212109506E7 ; 7.46718426562163E8 ; 4.284222497613519E8 ; 7.338281965002859E9 ; 0.0
12 ; 4.170966791420625E7 ; 7.680171887665652E8 ; 4.690266069734614E8 ; 8.085000391565022E9 ; 0.0
13 ; 4.277702046460846E7 ; 7.911694429206777E8 ; 5.1073627488766766E8 ; 8.853017580331587E9 ; 0.0
14 ; 4.290204591837558E7 ; 8.161751832898595E8 ; 5.535132953522761E8 ; 9.644187023252264E9 ; 0.0
15 ; 4.295302594319965E7 ; 8.430344018985443E8 ; 5.964153412706517E8 ; 1.0460362206542124E10 ; 0.0
16 ; 4.2998768516655214E7 ; 8.717470885821857E8 ; 6.393683672138513E8 ; 1.1303396608440668E10 ; 0.0
17 ; 4.30475467357072E7 ; 9.02313231052673E8 ; 6.823671357305065E8 ; 1.2175143697022854E10 ; 0.0
18 ; 4.309515480930766E7 ; 9.347328149762352E8 ; 7.254146824662137E8 ; 1.3077456928075527E10 ; 0.0
19 ; 4.314612767003208E7 ; 9.690058240626957E8 ; 7.685098372755214E8 ; 1.4012189743051762E10 ; 0.0
20 ; 4.320126006120077E7 ; 1.0051322401648003E9 ; 8.116559649455534E8 ; 1.4981195567114458E10 ; 0.0
21 ; 4.324867601713402E7 ; 1.0431120433862506E9 ; 8.548572250067542E8 ; 1.5986327807279259E10 ; 0.0
22 ; 4.330403199618229E7 ; 1.0829452121969936E9 ; 8.981059010238882E8 ; 1.702943985066551E10 ; 0.0
23 ; 4.3348677672835894E7 ; 1.1246317235542922E9 ; 9.414099330200706E8 ; 1.8112385062862503E10 ; 0.0
24 ; 4.340604601532775E7 ; 1.1681715530280955E9 ; 9.847586106929065E8 ; 1.9237016786416794E10 ; 0.0
25 ; 4.344977167236084E7 ; 1.2056929203183532E9 ; 1.0281646567082343E9 ; 2.040518833944489E10 ; 0.0
26 ; 4.350355540554795E7 ; 1.2057170856060379E9 ; 1.0716144283805952E9 ; 2.161088125976324E10 ; 0.0
27 ; 4.35530770043768E7 ; 1.2057426368323245E9 ; 1.115117983786143E9 ; 2.2816598345369278E10 ; 0.0
28 ; 4.360015303391759E7 ; 1.205769545307856E9 ; 1.15867106079052E9 ; 2.4022340982201603E10 ; 0.0
29 ; 4.3636735298019744E7 ; 1.2057977815985959E9 ; 1.2022712138244376E9 ; 2.522811052750946E10 ; 0.0
30 ; 4.3695454690925896E7 ; 1.2058273156489503E9 ; 1.2459079491224573E9 ; 2.6433908309108055E10 ; 0.0
31 ; 4.374257626659397E7 ; 1.2058581169007614E9 ; 1.289603403813383E9 ; 2.7639735624757004E10 ; 0.0
32 ; 4.378683985121541E7 ; 1.2058901544074147E9 ; 1.333345980079977E9 ; 2.8845593741657764E10 ; 0.0
33 ; 4.382227725452488E7 ; 1.2059233969424539E9 ; 1.3771328199311924E9 ; 3.0051483896065178E10 ; 0.0
34 ; 4.387052170354907E7 ; 1.2059578131022067E9 ; 1.4209550971857173E9 ; 3.1257407293007633E10 ; 0.0
35 ; 4.3915265449744925E7 ; 1.2059933714020581E9 ; 1.4648256188892665E9 ; 3.246336510610984E10 ; 0.0
36 ; 4.395703169317431E7 ; 1.2060300403661199E9 ; 1.5087408843390114E9 ; 3.3669358477511898E10 ; 0.0
37 ; 4.399140547237089E7 ; 1.2060677886101415E9 ; 1.5526979160321858E9 ; 3.487538851787802E10 ; 0.0
38 ; 4.402721312986994E7 ; 1.206106584917618E9 ; 1.5966893215045567E9 ; 3.608145630648816E10 ; 0.0
39 ; 4.4066436301478855E7 ; 1.2061463983091192E9 ; 1.6407165346344266E9 ; 3.728756289140578E10 ; 0.0
40 ; 4.409691753762891E7 ; 1.2061871981049495E9 ; 1.6847829709359055E9 ; 3.84937092897149E10 ; 0.0
41 ; 4.412963059849809E7 ; 1.206228953981303E9 ; 1.7288798884735343E9 ; 3.969989648781985E10 ; 0.0
42 ; 4.416150303950601E7 ; 1.2062716360201344E9 ; 1.7730095190720325E9 ; 4.090612544180115E10 ; 0.0
43 ; 4.4191484155512206E7 ; 1.2063152147530065E9 ; 1.8171710221115384E9 ; 4.211239707782128E10 ; 0.0
44 ; 4.42203991121708E7 ; 1.2063596611992054E9 ; 1.8613625062670505E9 ; 4.331871229257429E10 ; 0.0
45 ; 4.424306973927465E7 ; 1.2064049468984482E9 ; 1.9055829053792212E9 ; 4.452507195377349E10 ; 0.0
46 ; 4.4265327283846796E7 ; 1.2064510439385066E9 ; 1.949825975118496E9 ; 4.5731476900671936E10 ; 0.0
47 ; 4.42866453291255E7 ; 1.206497924978099E9 ; 1.9940913024023428E9 ; 4.693792794461044E10 ; 0.0
48 ; 4.430016676531843E7 ; 1.2065455632653968E9 ; 2.0383779477314682E9 ; 4.814442586958854E10 ; 0.0
49 ; 4.432478249531667E7 ; 1.2065939326524854E9 ; 2.0826781144967866E9 ; 4.9350971432853935E10 ; 0.0
50 ; 4.433689542424082E7 ; 1.2066430076061268E9 ; 2.1270028969921033E9 ; 5.0557565365506424E10 ; 0.0
51 ; 4.4352982234140426E7 ; 1.2066927632151537E9 ; 2.171339792416344E9 ; 5.176420837311255E10 ; 0.0
52 ; 4.436267744286795E7 ; 1.206743175194812E9 ; 2.2156927746504846E9 ; 5.2970901136327705E10 ; 0.0
53 ; 4.43752942808653E7 ; 1.206794219888362E9 ; 2.2600554520933523E9 ; 5.4177644311522514E10 ; 0.0
54 ; 4.439015261396184E7 ; 1.2068458742662215E9 ; 2.3044307463742175E9 ; 5.538443853141087E10 ; 0.0
55 ; 4.439714431409888E7 ; 1.206898115922937E9 ; 2.348820898988179E9 ; 5.659128440567709E10 ; 0.0
56 ; 4.440971582380956E7 ; 1.2069509230722246E9 ; 2.393218043302278E9 ; 5.779818252160003E10 ; 0.0
57 ; 4.441534042013956E7 ; 1.2070042745403316E9 ; 2.4376277591260877E9 ; 5.900513344467226E10 ; 0.0
58 ; 4.442945475965513E7 ; 1.2070581497579331E9 ; 2.4820430995462275E9 ; 6.0212137719212585E10 ; 0.0
59 ; 4.4440688806631304E7 ; 1.2071125287507749E9 ; 2.5264725543058825E9 ; 6.141919586897052E10 ; 0.0
60 ; 4.445237045399089E7 ; 1.2071673921292396E9 ; 2.5709132431125135E9 ; 6.26263083977213E10 ; 0.0
61 ; 4.445757147521578E7 ; 1.20722272107702E9 ; 2.6153656135665045E9 ; 6.383347578985054E10 ; 0.0
62 ; 4.447156196273708E7 ; 1.207278497339045E9 ; 2.6598231850417204E9 ; 6.504069851092756E10 ; 0.0
63 ; 4.448109304248464E7 ; 1.2073347032088041E9 ; 2.7042947470044575E9 ; 6.62479770082666E10 ; 0.0
64 ; 4.44928463492543E7 ; 1.207391321515195E9 ; 2.748775840046942E9 ; 6.74553117114754E10 ; 0.0
65 ; 4.449739210813558E7 ; 1.2074483356090097E9 ; 2.7932686863961964E9 ; 6.86627030329906E10 ; 0.0
66 ; 4.4504694985851884E7 ; 1.2075057293491626E9 ; 2.837766078504332E9 ; 6.987015136859961E10 ; 0.0
67 ; 4.4511616748876154E7 ; 1.2075634870887423E9 ; 2.882270773490184E9 ; 7.107765709794878E10 ; 0.0
68 ; 4.451859184966496E7 ; 1.2076215936609788E9 ; 2.92678239023906E9 ; 7.228522058503752E10 ; 0.0
69 ; 4.452018458911116E7 ; 1.2076800343651881E9 ; 2.971300982088725E9 ; 7.34928421786985E10 ; 0.0
70 ; 4.452862411203349E7 ; 1.2077387949527583E9 ; 3.0158211666778364E9 ; 7.470052221306369E10 ; 0.0
71 ; 4.453417116445309E7 ; 1.2077978616132288E9 ; 3.06034979078987E9 ; 7.590826100801645E10 ; 0.0
72 ; 4.453731627158232E7 ; 1.2078572209605124E9 ; 3.104883961954323E9 ; 7.711605886962968E10 ; 0.0
73 ; 4.454982416683407E7 ; 1.2079168600192962E9 ; 3.149421278225905E9 ; 7.83239160905902E10 ; 0.0
74 ; 4.455272056999355E7 ; 1.2079767662116556E9 ; 3.193971102392739E9 ; 7.95318329506095E10 ; 0.0
75 ; 4.4552303908634506E7 ; 1.2080369273439102E9 ; 3.2385238229627323E9 ; 8.073980971682115E10 ; 0.0
76 ; 4.455552785278961E7 ; 1.2080973315937457E9 ; 3.283076126871367E9 ; 8.194784664416507E10 ; 0.0
77 ; 4.456258871833078E7 ; 1.2081579674976168E9 ; 3.3276316547241564E9 ; 8.315594397575882E10 ; 0.0
78 ; 4.455125127813275E7 ; 1.208218823938453E9 ; 3.3721942434424872E9 ; 8.436410194325644E10 ; 0.0
79 ; 4.453821298020268E7 ; 1.2082798901336713E9 ; 3.41674549472062E9 ; 8.557232076719489E10 ; 0.0
80 ; 4.452084178121878E7 ; 1.208341155623513E9 ; 3.461283707700823E9 ; 8.678060065732855E10 ; 0.0
81 ; 4.451482432054144E7 ; 1.2084026102596998E9 ; 3.505804549482042E9 ; 8.798894181295207E10 ; 0.0
82 ; 4.450440374324026E7 ; 1.2084642441944268E9 ; 3.550319373802583E9 ; 8.919734442321178E10 ; 0.0
83 ; 4.449259842880548E7 ; 1.2085260478696816E9 ; 3.5948237775458236E9 ; 9.04058086674062E10 ; 0.0
84 ; 4.4475870459657215E7 ; 1.2085880120068974E9 ; 3.639316375974629E9 ; 9.161433471527588E10 ; 0.0
85 ; 4.4467850072086915E7 ; 1.2086501275969348E9 ; 3.683792246434286E9 ; 9.282292272728278E10 ; 0.0
86 ; 4.444829110201715E7 ; 1.208712385890392E9 ; 3.728260096506373E9 ; 9.403157285487971E10 ; 0.0
87 ; 4.4443071963187106E7 ; 1.2087747783882375E9 ; 3.77270838760839E9 ; 9.524028524077011E10 ; 0.0
88 ; 4.442117558596614E7 ; 1.208837296832761E9 ; 3.817151459571577E9 ; 9.644906001915836E10 ; 0.0
89 ; 4.4410658756782405E7 ; 1.2088999331988401E9 ; 3.861572635157543E9 ; 9.765789731599112E10 ; 0.0
90 ; 4.440016649542091E7 ; 1.2089626796855114E9 ; 3.9059832939143257E9 ; 9.886679724918996E10 ; 0.0
91 ; 4.437788104787758E7 ; 1.209025528707839E9 ; 3.9503834604097466E9 ; 1.0007575992887547E11 ; 0.0
92 ; 4.43668341241408E7 ; 1.2090884728890848E9 ; 3.9947613414576244E9 ; 1.0128478545758331E11 ; 0.0
93 ; 4.434542575766676E7 ; 1.2091515050531535E9 ; 4.039128175581765E9 ; 1.024938739304724E11 ; 0.0
94 ; 4.433591824782461E7 ; 1.2092146182173238E9 ; 4.083473601339432E9 ; 1.0370302543552554E11 ; 0.0
95 ; 4.431141389795776E7 ; 1.2092778055852442E9 ; 4.1278095195872564E9 ; 1.0491224005374287E11 ; 0.0
96 ; 4.4298237792122796E7 ; 1.209341060540195E9 ; 4.172120933485214E9 ; 1.0612151785932812E11 ; 0.0
97 ; 4.427597300738114E7 ; 1.2094043766385984E9 ; 4.216419171277337E9 ; 1.0733085891986832E11 ; 0.0
98 ; 4.426540964419775E7 ; 1.2094677476037807E9 ; 4.260695144284718E9 ; 1.0854026329650691E11 ; 0.0
99 ; 4.4244524178667374E7 ; 1.2095311673199677E9 ; 4.304960553928916E9 ; 1.0974973104411069E11 ; 0.0
100 ; 4.4225248303740114E7 ; 1.2095946298265114E9 ; 4.349205078107583E9 ; 1.1095926221143065E11 ; 0.0
101 ; 4.420750371269794E7 ; 1.2096581293123379E9 ; 4.393430326411324E9 ; 1.1216885684125716E11 ; 0.0
102 ; 4.41829795119285E7 ; 1.2097216601106112E9 ; 4.437637830124022E9 ; 1.1337851497056949E11 ; 0.0
103 ; 4.416358520995081E7 ; 1.2097852166936007E9 ; 4.48182080963595E9 ; 1.145882366306801E11 ; 0.0
104 ; 4.414561829053087E7 ; 1.2098487936677494E9 ; 4.525984394845901E9 ; 1.157980218473737E11 ; 0.0
105 ; 4.412836809110249E7 ; 1.2099123857689326E9 ; 4.570130013136432E9 ; 1.1700787064104146E11 ; 0.0
106 ; 4.409705868509637E7 ; 1.209975987857904E9 ; 4.614258381227534E9 ; 1.182177830268104E11 ; 0.0
107 ; 4.40809888564598E7 ; 1.2100395949159138E9 ; 4.658355439912631E9 ; 1.194277590146683E11 ; 0.0
108 ; 4.4060863845375046E7 ; 1.2101032020405045E9 ; 4.702436428769091E9 ; 1.2063779860958421E11 ; 0.0
109 ; 4.4036931139964014E7 ; 1.2101668044414647E9 ; 4.746497292614466E9 ; 1.2184790181162473E11 ; 0.0
110 ; 4.401142367992093E7 ; 1.210230397436945E9 ; 4.79053422375443E9 ; 1.230580686160662E11 ; 0.0
111 ; 4.398619510603376E7 ; 1.2102939764497242E9 ; 4.834545647434351E9 ; 1.2426829901350314E11 ; 0.0
112 ; 4.396200815297001E7 ; 1.2103575370036216E9 ; 4.878531842540384E9 ; 1.2547859298995287E11 ; 0.0
113 ; 4.393504781291915E7 ; 1.2104210747200477E9 ; 4.922493850693355E9 ; 1.2668895052695648E11 ; 0.0
114 ; 4.3917531198238984E7 ; 1.210484585314693E9 ; 4.966428898506274E9 ; 1.2789937160167653E11 ; 0.0
115 ; 4.389222171330245E7 ; 1.2105480645943425E9 ; 5.010346429704514E9 ; 1.2910985618699123E11 ; 0.0
116 ; 4.386334225287355E7 ; 1.2106115084538164E9 ; 5.054238651417816E9 ; 1.3032040425158557E11 ; 0.0
117 ; 4.383666287337287E7 ; 1.2106749128730285E9 ; 5.09810199367069E9 ; 1.3153101576003938E11 ; 0.0
118 ; 4.380771144348628E7 ; 1.2107382739141603E9 ; 5.141938656544063E9 ; 1.3274169067291241E11 ; 0.0
119 ; 4.379135222582046E7 ; 1.2108015877189424E9 ; 5.185746367987549E9 ; 1.3395242894682657E11 ; 0.0
120 ; 4.375762661904906E7 ; 1.210864850506045E9 ; 5.229537720213369E9 ; 1.3516323053454552E11 ; 0.0
121 ; 4.37294581792458E7 ; 1.2109280585685651E9 ; 5.273295346832418E9 ; 1.3637409538505156E11 ; 0.0
122 ; 4.370195565601523E7 ; 1.2109912082716131E9 ; 5.317024805011664E9 ; 1.3758502344362012E11 ; 0.0
123 ; 4.3674830210843325E7 ; 1.2110542960499928E9 ; 5.36072676066768E9 ; 1.3879601465189172E11 ; 0.0
124 ; 4.3646430949820966E7 ; 1.211117318405968E9 ; 5.404401590878523E9 ; 1.400070689479417E11 ; 0.0
125 ; 4.3613825174530596E7 ; 1.2111802719071178E9 ; 5.448048021828343E9 ; 1.412181862663477E11 ; 0.0
126 ; 4.358466375835612E7 ; 1.2112431531842725E9 ; 5.491661847002874E9 ; 1.424293665382548E11 ; 0.0
127 ; 4.3556004567782134E7 ; 1.211305958929527E9 ; 5.53524651076123E9 ; 1.4364060969143906E11 ; 0.0
128 ; 4.352354732570213E7 ; 1.2113686858943326E9 ; 5.578802515329013E9 ; 1.448519156503686E11 ; 0.0
129 ; 4.3497813967295125E7 ; 1.2114313308876593E9 ; 5.622326062654715E9 ; 1.460632843362629E11 ; 0.0
130 ; 4.346035712539854E7 ; 1.211493890774228E9 ; 5.665823876622009E9 ; 1.4727471566715057E11 ; 0.0
131 ; 4.34164791480171E7 ; 1.2115563624728103E9 ; 5.709284233747408E9 ; 1.484862095579248E11 ; 0.0
132 ; 4.336632758329599E7 ; 1.2116187429545913E9 ; 5.752700712895425E9 ; 1.496977659203976E11 ; 0.0
133 ; 4.3320299528245345E7 ; 1.211681029241595E9 ; 5.796067040478721E9 ; 1.509093846633522E11 ; 0.0
134 ; 4.327565767319789E7 ; 1.2117432184051678E9 ; 5.839387340006966E9 ; 1.521210656925938E11 ; 0.0
135 ; 4.323686167170529E7 ; 1.2118053075645185E9 ; 5.882662997680163E9 ; 1.53332808910999E11 ; 0.0
136 ; 4.317933121359594E7 ; 1.211867293885314E9 ; 5.925899859351869E9 ; 1.545446142185635E11 ; 0.0
137 ; 4.313652583645887E7 ; 1.2119291745783248E9 ; 5.969079190565465E9 ; 1.5575648151244882E11 ; 0.0
138 ; 4.308899470921674E7 ; 1.2119909468981242E9 ; 6.012215716401924E9 ; 1.5696841068702716E11 ; 0.0
139 ; 4.303583824597265E7 ; 1.2120526081418319E9 ; 6.055304711111141E9 ; 1.581804016339253E11 ; 0.0
140 ; 4.2994684624357685E7 ; 1.2121141556479053E9 ; 6.098340549357114E9 ; 1.5939245424206714E11 ; 0.0
141 ; 4.2938942652929194E7 ; 1.2121755867949762E9 ; 6.141335233981471E9 ; 1.6060456839771506E11 ; 0.0
142 ; 4.289408229191982E7 ; 1.2122368990007281E9 ; 6.1842741766344E9 ; 1.6181674398451004E11 ; 0.0
143 ; 4.284653768250269E7 ; 1.2122980897208154E9 ; 6.22716825892632E9 ; 1.6302898088351077E11 ; 0.0
144 ; 4.27937651897778E7 ; 1.212359156447823E9 ; 6.270014796608823E9 ; 1.642412789732316E11 ; 0.0
145 ; 4.2761337296313785E7 ; 1.2124200967102604E9 ; 6.3128085617986E9 ; 1.654536381296794E11 ; 0.0
146 ; 4.272799420491061E7 ; 1.2124809080715957E9 ; 6.355569899094914E9 ; 1.6666605822638968E11 ; 0.0
147 ; 4.2688661395227246E7 ; 1.2125415881293216E9 ; 6.398297893299825E9 ; 1.6787853913446127E11 ; 0.0
148 ; 4.266390689574807E7 ; 1.2126021345140576E9 ; 6.440986554695052E9 ; 1.690910807225906E11 ; 0.0
149 ; 4.262737733389952E7 ; 1.2126625448886817E9 ; 6.4836504615908E9 ; 1.7030368285710468E11 ; 0.0
150 ; 4.259589140887083E7 ; 1.2127228169474938E9 ; 6.5262778389247E9 ; 1.7151634540199335E11 ; 0.0
151 ; 4.255501068625024E7 ; 1.21278294841541E9 ; 6.5688737303335705E9 ; 1.7272906821894083E11 ; 0.0
152 ; 4.2523209740084656E7 ; 1.2128429370471845E9 ; 6.611428741019821E9 ; 1.7394185116735623E11 ; 0.0
153 ; 4.24925145293207E7 ; 1.212902780626659E9 ; 6.653951950759906E9 ; 1.751546941044034E11 ; 0.0
154 ; 4.245682966955165E7 ; 1.2129624769660373E9 ; 6.696444465289227E9 ; 1.7636759688503006E11 ; 0.0
155 ; 4.242441680565782E7 ; 1.2130220239051895E9 ; 6.738901294958778E9 ; 1.775805593619961E11 ; 0.0
156 ; 4.2385129693494834E7 ; 1.2130814193109746E9 ; 6.781325711764436E9 ; 1.7879358138590128E11 ; 0.0
157 ; 4.234909204762486E7 ; 1.2131406610765915E9 ; 6.823710841457931E9 ; 1.8000666280521225E11 ; 0.0
158 ; 4.231917994054957E7 ; 1.213199747120951E9 ; 6.866059933505555E9 ; 1.8121980346628885E11 ; 0.0
159 ; 4.2278882483357415E7 ; 1.2132586753880682E9 ; 6.908379113446105E9 ; 1.824330032134098E11 ; 0.0
160 ; 4.22448955572343E7 ; 1.2133174438464773E9 ; 6.950657995929462E9 ; 1.8364626188879785E11 ; 0.0
161 ; 4.2218016687935E7 ; 1.213376050488668E9 ; 6.992902891486697E9 ; 1.8485957933264432E11 ; 0.0
162 ; 4.218215612405105E7 ; 1.2134344933305366E9 ; 7.035120908174632E9 ; 1.86072955383133E11 ; 0.0
163 ; 4.214058698809625E7 ; 1.213492770410862E9 ; 7.077303064298683E9 ; 1.8728638987646353E11 ; 0.0
164 ; 4.2100680194397025E7 ; 1.2135508797907934E9 ; 7.119443651286779E9 ; 1.884998826468744E11 ; 0.0
165 ; 4.206130890341724E7 ; 1.213608819553361E9 ; 7.161544331481176E9 ; 1.897134335266652E11 ; 0.0
166 ; 4.202996860296725E7 ; 1.2136665878029985E9 ; 7.203605640384594E9 ; 1.9092704234621857E11 ; 0.0
167 ; 4.1994356237308346E7 ; 1.2137241826650858E9 ; 7.245635608987561E9 ; 1.9214070893402158E11 ; 0.0
168 ; 4.195842968767728E7 ; 1.2137816022855036E9 ; 7.28762996522487E9 ; 1.9335443311668668E11 ; 0.0
169 ; 4.1923632686668724E7 ; 1.2138388448302062E9 ; 7.329588394912547E9 ; 1.9456821471897217E11 ; 0.0
170 ; 4.188096167578267E7 ; 1.2138959084848056E9 ; 7.3715120275992155E9 ; 1.9578205356380237E11 ; 0.0
171 ; 4.184369483799842E7 ; 1.2139527914541717E9 ; 7.413392989274998E9 ; 1.9699594947228717E11 ; 0.0
172 ; 4.180725815276593E7 ; 1.2140094919620452E9 ; 7.455236684112996E9 ; 1.9820990226374133E11 ; 0.0
173 ; 4.177101080844244E7 ; 1.214066008250662E9 ; 7.497043942265762E9 ; 1.9942391175570337E11 ; 0.0
174 ; 4.174786975204533E7 ; 1.2141223385803933E9 ; 7.538814953074204E9 ; 2.0063797776395404E11 ; 0.0
175 ; 4.172581472784633E7 ; 1.2141784812293932E9 ; 7.58056282282625E9 ; 2.0185210010253442E11 ; 0.0
176 ; 4.1704451544651195E7 ; 1.2142344344932618E9 ; 7.622288637554096E9 ; 2.0306627858376382E11 ; 0.0
177 ; 4.1677707868684694E7 ; 1.2142901966847172E9 ; 7.663993089098747E9 ; 2.0428051301825708E11 ; 0.0
178 ; 4.165692461449288E7 ; 1.2143457661332788E9 ; 7.705670796967432E9 ; 2.054948032149418E11 ; 0.0
179 ; 4.163075568453108E7 ; 1.2144011411849618E9 ; 7.747327721581924E9 ; 2.0670914898107507E11 ; 0.0
180 ; 4.161117319160524E7 ; 1.2144563202019794E9 ; 7.788958477266456E9 ; 2.0792355012226004E11 ; 0.0
181 ; 4.1579561696398005E7 ; 1.2145113015624573E9 ; 7.830569650458061E9 ; 2.09138006442462E11 ; 0.0
182 ; 4.156371122143393E7 ; 1.2145660836601558E9 ; 7.872149212154459E9 ; 2.1035251774402448E11 ; 0.0
183 ; 4.154008872020269E7 ; 1.2146206649042015E9 ; 7.913712923375893E9 ; 2.1156708382768463E11 ; 0.0
184 ; 4.151001764890213E7 ; 1.2146750437188277E9 ; 7.955253012096095E9 ; 2.1278170449258884E11 ; 0.0
185 ; 4.149065467464362E7 ; 1.2147292185431223E9 ; 7.996763029744997E9 ; 2.1399637953630768E11 ; 0.0
186 ; 4.146737276878737E7 ; 1.2147831878307862E9 ; 8.038253684419641E9 ; 2.152111087548508E11 ; 0.0
187 ; 4.144682867109503E7 ; 1.214836950049895E9 ; 8.079721057188428E9 ; 2.1642589194268158E11 ; 0.0
188 ; 4.142689661271579E7 ; 1.214890503682674E9 ; 8.121167885859523E9 ; 2.1764072889273148E11 ; 0.0
189 ; 4.139825892859695E7 ; 1.2149438472252753E9 ; 8.162594782472239E9 ; 2.1885561939641415E11 ; 0.0
190 ; 4.1380991978624366E7 ; 1.2149969791875648E9 ; 8.203993041400835E9 ; 2.2007056324363943E11 ; 0.0
191 ; 4.135126383781028E7 ; 1.2150498980929167E9 ; 8.245374033379459E9 ; 2.21285560222827E11 ; 0.0
192 ; 4.1330644909501836E7 ; 1.2151026024780097E9 ; 8.28672529721727E9 ; 2.2250061012091992E11 ; 0.0
193 ; 4.131605532412271E7 ; 1.2151550908926368E9 ; 8.328055942126772E9 ; 2.2371571272339792E11 ; 0.0
194 ; 4.128269227092349E7 ; 1.2152073618995154E9 ; 8.369371997450894E9 ; 2.2493086781429056E11 ; 0.0
195 ; 4.1263586655914426E7 ; 1.2152594140741055E9 ; 8.410654689721818E9 ; 2.2614607517619006E11 ; 0.0
196 ; 4.124196788211095E7 ; 1.2153112460044339E9 ; 8.451918276377732E9 ; 2.2736133459026416E11 ; 0.0
197 ; 4.1214410657032475E7 ; 1.2153628562909229E9 ; 8.493160244259843E9 ; 2.285766458362686E11 ; 0.0
