CSV File for the Network on Day 266
1 - Minute m 
2 - Power Consumed at minute m 
3 - Power Produced at minute m 
4 - Energy Consumed since the beginning of the day 
5 - Energy Produced since the beginning of the day 
6 - Energy Lost since the beginning of the day 
 
0 ; 1.5301828335565876E7 ; 6.35180604685874E8 ; 0.0 ; 0.0 ; 0.0
1 ; 1.5330249522366414E7 ; 6.360914756572022E8 ; 1.5301828335565876E7 ; 6.35180604685874E8 ; 0.0
2 ; 1.5360499284826715E7 ; 6.388557342001092E8 ; 3.0632077857932292E7 ; 1.2712720803430762E9 ; 0.0
3 ; 1.5396961814116485E7 ; 6.434733962781007E8 ; 4.599257714275901E7 ; 1.9101278145431855E9 ; 0.0
4 ; 1.543316074047141E7 ; 6.499444761927009E8 ; 6.1389538956875496E7 ; 2.553601210821286E9 ; 0.0
5 ; 1.550206930571799E7 ; 6.582689865057795E8 ; 7.682269969734691E7 ; 3.203545687013987E9 ; 0.0
6 ; 1.5574388583292786E7 ; 6.684469379700515E8 ; 9.23247690030649E7 ; 3.861814673519767E9 ; 0.0
7 ; 1.5698214261008602E7 ; 6.804783394686301E8 ; 1.0789915758635768E8 ; 4.530261611489819E9 ; 0.0
8 ; 1.587450671763347E7 ; 6.943631979644237E8 ; 1.2359737184736629E8 ; 5.210739950958448E9 ; 0.0
9 ; 1.6138908874069298E7 ; 7.101015184600507E8 ; 1.3947187856499976E8 ; 5.905103148922873E9 ; 0.0
10 ; 1.6565329003394634E7 ; 7.276933039688076E8 ; 1.5561078743906906E8 ; 6.615204667382923E9 ; 0.0
11 ; 1.7242519571627542E7 ; 7.47138555497088E8 ; 1.721761164424637E8 ; 7.34289797135173E9 ; 0.0
12 ; 1.8330345842686042E7 ; 7.684372720384979E8 ; 1.8941863601409125E8 ; 8.090036526848818E9 ; 0.0
13 ; 1.9399390293868273E7 ; 7.915894505797411E8 ; 2.077489818567773E8 ; 8.858473798887316E9 ; 0.0
14 ; 1.950568106576082E7 ; 8.165950861181998E8 ; 2.2714837215064558E8 ; 9.650063249467056E9 ; 0.0
15 ; 1.953956834193725E7 ; 8.434541716909647E8 ; 2.466540532164064E8 ; 1.0466658335585257E10 ; 0.0
16 ; 1.9588693713060346E7 ; 8.721666984149231E8 ; 2.6619362155834365E8 ; 1.1310112507276222E10 ; 0.0
17 ; 1.9628282544008665E7 ; 9.027326555373601E8 ; 2.8578231527140397E8 ; 1.2182279205691145E10 ; 0.0
18 ; 1.9662570912946686E7 ; 9.351520304964056E8 ; 3.0541059781541264E8 ; 1.3085011861228504E10 ; 0.0
19 ; 1.9704995617398456E7 ; 9.694248089905355E8 ; 3.2507316872835934E8 ; 1.402016389172491E10 ; 0.0
20 ; 1.974198148436962E7 ; 1.0055509750562441E9 ; 3.447781643457578E8 ; 1.4989588700715446E10 ; 0.0
21 ; 1.9786204454514414E7 ; 1.0435305111529251E9 ; 3.645201458301274E8 ; 1.599513967577169E10 ; 0.0
22 ; 1.9832314683730274E7 ; 1.0833633982539375E9 ; 3.8430635028464186E8 ; 1.7038670186924616E10 ; 0.0
23 ; 1.9876516196794868E7 ; 1.125049615942805E9 ; 4.041386649683721E8 ; 1.8122033585178555E10 ; 0.0
24 ; 1.990507935941629E7 ; 1.1685891425134726E9 ; 4.24015181165167E8 ; 1.924708320112136E10 ; 0.0
25 ; 1.9954490629669596E7 ; 1.2061102004626575E9 ; 4.439202605245833E8 ; 2.0415672343634834E10 ; 0.0
26 ; 1.9995102249637656E7 ; 1.206134052816419E9 ; 4.638747511542529E8 ; 2.1621782544097492E10 ; 0.0
27 ; 2.0043175304475978E7 ; 1.206159290385717E9 ; 4.8386985340389055E8 ; 2.282791659691391E10 ; 0.0
28 ; 2.0078255156681027E7 ; 1.2061858873531713E9 ; 5.039130287083665E8 ; 2.4034075887299625E10 ; 0.0
29 ; 2.0110885280412413E7 ; 1.2062138171377606E9 ; 5.239912838650475E8 ; 2.5240261774652798E10 ; 0.0
30 ; 2.014769509365543E7 ; 1.206243052498342E9 ; 5.441021691454599E8 ; 2.6446475591790558E10 ; 0.0
31 ; 2.0187280699189782E7 ; 1.2062735656347253E9 ; 5.642498642391154E8 ; 2.76527186442889E10 ; 0.0
32 ; 2.023174492892416E7 ; 1.206305328285666E9 ; 5.844371449383051E8 ; 2.8858992209923622E10 ; 0.0
33 ; 2.0261351001501024E7 ; 1.2063383118232129E9 ; 6.046688898672293E8 ; 3.006529753820929E10 ; 0.0
34 ; 2.0292050080996606E7 ; 1.20637248734295E9 ; 6.249302408687303E8 ; 3.12716358500325E10 ; 0.0
35 ; 2.0325646065353155E7 ; 1.2064078257497487E9 ; 6.452222909497269E8 ; 3.247800833737545E10 ; 0.0
36 ; 2.0355755271618944E7 ; 1.2064442978387353E9 ; 6.655479370150801E8 ; 3.36844161631252E10 ; 0.0
37 ; 2.0388766078123912E7 ; 1.2064818743712592E9 ; 6.85903692286699E8 ; 3.4890860460963936E10 ; 0.0
38 ; 2.0415725859484717E7 ; 1.2065205261457171E9 ; 7.06292458364823E8 ; 3.60973423353352E10 ; 0.0
39 ; 2.044989471783939E7 ; 1.206560224063164E9 ; 7.267081842243077E8 ; 3.730386286148091E10 ; 0.0
40 ; 2.0469894719402656E7 ; 1.20660093918769E9 ; 7.47158078942147E8 ; 3.8510423085544075E10 ; 0.0
41 ; 2.0491167942017972E7 ; 1.2066426428016152E9 ; 7.676279736615497E8 ; 3.9717024024731766E10 ; 0.0
42 ; 2.051333568140123E7 ; 1.2066853064555838E9 ; 7.881191416035676E8 ; 4.092366666753338E10 ; 0.0
43 ; 2.0541286111375548E7 ; 1.206728902013691E9 ; 8.086324772849689E8 ; 4.213035197398896E10 ; 0.0
44 ; 2.0555138177775487E7 ; 1.2067734016938052E9 ; 8.291737633963444E8 ; 4.3337080876002655E10 ; 0.0
45 ; 2.0571266607442852E7 ; 1.2068187781032786E9 ; 8.497289015741199E8 ; 4.454385427769646E10 ; 0.0
46 ; 2.0590325659030095E7 ; 1.2068650042702563E9 ; 8.703001681815628E8 ; 4.5750673055799736E10 ; 0.0
47 ; 2.060851282775373E7 ; 1.206912053670814E9 ; 8.908904938405929E8 ; 4.695753806006999E10 ; 0.0
48 ; 2.0614161588956848E7 ; 1.206959900252167E9 ; 9.114990066683466E8 ; 4.816445011374081E10 ; 0.0
49 ; 2.062636833400105E7 ; 1.2070085184521961E9 ; 9.321131682573035E8 ; 4.937141001399297E10 ; 0.0
50 ; 2.0631778192408625E7 ; 1.2070578832155387E9 ; 9.527395365913045E8 ; 5.057841853244517E10 ; 0.0
51 ; 2.0642071747115165E7 ; 1.207107970006501E9 ; 9.733713147837132E8 ; 5.1785476415660706E10 ; 0.0
52 ; 2.0644104126030646E7 ; 1.2071587548190331E9 ; 9.940133865308284E8 ; 5.2992584385667206E10 ; 0.0
53 ; 2.0655783078332573E7 ; 1.2072102141840136E9 ; 1.014657490656859E9 ; 5.419974314048624E10 ; 0.0
54 ; 2.0658895055034023E7 ; 1.2072623251740746E9 ; 1.0353132737351916E9 ; 5.540695335467025E10 ; 0.0
55 ; 2.0663631078535393E7 ; 1.2073150654061964E9 ; 1.0559721687902256E9 ; 5.661421567984432E10 ; 0.0
56 ; 2.0661830035608508E7 ; 1.2073684130422852E9 ; 1.076635799868761E9 ; 5.782153074525052E10 ; 0.0
57 ; 2.067247578495903E7 ; 1.2074223467879415E9 ; 1.0972976299043696E9 ; 5.90288991582928E10 ; 0.0
58 ; 2.0678194528021943E7 ; 1.2074768458896089E9 ; 1.1179701056893287E9 ; 6.023632150508074E10 ; 0.0
59 ; 2.068541981024565E7 ; 1.207531890130292E9 ; 1.1386483002173507E9 ; 6.144379835097035E10 ; 0.0
60 ; 2.0682414024741482E7 ; 1.2075874598240054E9 ; 1.1593337200275965E9 ; 6.265133024110065E10 ; 0.0
61 ; 2.068285153790819E7 ; 1.2076435358091192E9 ; 1.180016134052338E9 ; 6.385891770092465E10 ; 0.0
62 ; 2.0690148641431294E7 ; 1.207700099440741E9 ; 1.200698985590246E9 ; 6.506656123673377E10 ; 0.0
63 ; 2.069263485754933E7 ; 1.2077571325822773E9 ; 1.2213891342316773E9 ; 6.6274261336174515E10 ; 0.0
64 ; 2.069527772879721E7 ; 1.20781461759629E9 ; 1.2420817690892267E9 ; 6.748201846875679E10 ; 0.0
65 ; 2.069628943531739E7 ; 1.2078725373347669E9 ; 1.262777046818024E9 ; 6.868983308635308E10 ; 0.0
66 ; 2.070368133677682E7 ; 1.2079308751289084E9 ; 1.2834733362533412E9 ; 6.989770562368785E10 ; 0.0
67 ; 2.069796693312236E7 ; 1.207989614778523E9 ; 1.304177017590118E9 ; 7.110563649881676E10 ; 0.0
68 ; 2.069979110628957E7 ; 1.2080487405411184E9 ; 1.3248749845232403E9 ; 7.231362611359528E10 ; 0.0
69 ; 2.0695552861690335E7 ; 1.2081082371207619E9 ; 1.34557477562953E9 ; 7.35216748541364E10 ; 0.0
70 ; 2.069548297518504E7 ; 1.2081680896567795E9 ; 1.3662703284912202E9 ; 7.472978309125716E10 ; 0.0
71 ; 2.06940365133505E7 ; 1.2082282837123575E9 ; 1.3869658114664054E9 ; 7.593795118091394E10 ; 0.0
72 ; 2.0700348364380717E7 ; 1.208288805263097E9 ; 1.4076598479797559E9 ; 7.71461794646263E10 ; 0.0
73 ; 2.069580193574629E7 ; 1.2083496406855686E9 ; 1.4283601963441367E9 ; 7.835446826988939E10 ; 0.0
74 ; 2.0702834429902732E7 ; 1.2084107767459157E9 ; 1.449055998279883E9 ; 7.956281791057495E10 ; 0.0
75 ; 2.069569640431688E7 ; 1.2084722005885363E9 ; 1.4697588327097857E9 ; 8.077122868732086E10 ; 0.0
76 ; 2.0694131980277933E7 ; 1.2085338997248797E9 ; 1.4904545291141026E9 ; 8.19797008879094E10 ; 0.0
77 ; 2.0692118118339483E7 ; 1.2085958620223832E9 ; 1.5111486610943806E9 ; 8.318823478763428E10 ; 0.0
78 ; 2.068048757624547E7 ; 1.208658075693575E9 ; 1.5318407792127202E9 ; 8.439683064965666E10 ; 0.0
79 ; 2.0668092846226342E7 ; 1.2087205292853613E9 ; 1.5525212667889657E9 ; 8.560548872535023E10 ; 0.0
80 ; 2.0644408664503384E7 ; 1.2087832116685169E9 ; 1.5731893596351922E9 ; 8.681420925463559E10 ; 0.0
81 ; 2.0632558175911397E7 ; 1.2088461120273883E9 ; 1.5938337682996955E9 ; 8.802299246630411E10 ; 0.0
82 ; 2.0620625082298096E7 ; 1.208909219849828E9 ; 1.614466326475607E9 ; 8.92318385783315E10 ; 0.0
83 ; 2.059737125902541E7 ; 1.2089725249173617E9 ; 1.635086951557905E9 ; 9.044074779818132E10 ; 0.0
84 ; 2.058037748474788E7 ; 1.2090360172956007E9 ; 1.6556843228169303E9 ; 9.164972032309868E10 ; 0.0
85 ; 2.0567354402176034E7 ; 1.2090996873249006E9 ; 1.6762647003016782E9 ; 9.285875634039427E10 ; 0.0
86 ; 2.054385054249613E7 ; 1.2091635256112726E9 ; 1.6968320547038543E9 ; 9.406785602771918E10 ; 0.0
87 ; 2.0528756461124633E7 ; 1.209227523017548E9 ; 1.7173759052463505E9 ; 9.527701955333044E10 ; 0.0
88 ; 2.0515496792882577E7 ; 1.2092916706547961E9 ; 1.7379046617074752E9 ; 9.648624707634799E10 ; 0.0
89 ; 2.0491059241831686E7 ; 1.2093559598739958E9 ; 1.7584201585003579E9 ; 9.769553874700279E10 ; 0.0
90 ; 2.046874221702058E7 ; 1.2094203822579584E9 ; 1.7789112177421896E9 ; 9.890489470687679E10 ; 0.0
91 ; 2.0451606470725197E7 ; 1.209484929613505E9 ; 1.7993799599592102E9 ; 1.0011431508913475E11 ; 0.0
92 ; 2.043487108966939E7 ; 1.2095495939638822E9 ; 1.8198315664299355E9 ; 1.0132380001874826E11 ; 0.0
93 ; 2.0411851292660125E7 ; 1.2096143675414305E9 ; 1.840266437519605E9 ; 1.0253334961271214E11 ; 0.0
94 ; 2.0399785900937214E7 ; 1.2096792427804847E9 ; 1.8606782888122652E9 ; 1.0374296398025357E11 ; 0.0
95 ; 2.037663286203397E7 ; 1.2097442123105145E9 ; 1.8810780747132025E9 ; 1.0495264322303406E11 ; 0.0
96 ; 2.0352876518837914E7 ; 1.20980926894949E9 ; 1.9014547075752366E9 ; 1.0616238743534457E11 ; 0.0
97 ; 2.033458403474681E7 ; 1.2098744056974785E9 ; 1.9218075840940745E9 ; 1.0737219670429407E11 ; 0.0
98 ; 2.030891078887485E7 ; 1.209939615730453E9 ; 1.9421421681288214E9 ; 1.0858207110999155E11 ; 0.0
99 ; 2.028609004955873E7 ; 1.2100048923943205E9 ; 1.9624510789176962E9 ; 1.09792010725722E11 ; 0.0
100 ; 2.0269920289312467E7 ; 1.2100702291991572E9 ; 1.9827371689672549E9 ; 1.1100201561811632E11 ; 0.0
101 ; 2.0241933584305678E7 ; 1.2101356198136454E9 ; 2.0030070892565672E9 ; 1.1221208584731548E11 ; 0.0
102 ; 2.02200375943029E7 ; 1.2102010580597067E9 ; 2.023249022840873E9 ; 1.1342222146712912E11 ; 0.0
103 ; 2.0204822859623905E7 ; 1.2102665379073267E9 ; 2.043469060435176E9 ; 1.1463242252518883E11 ; 0.0
104 ; 2.0166652012305323E7 ; 1.2103320534695668E9 ; 2.0636738832947998E9 ; 1.1584268906309616E11 ; 0.0
105 ; 2.0156754274265524E7 ; 1.2103975989977527E9 ; 2.083840535307105E9 ; 1.1705302111656573E11 ; 0.0
106 ; 2.0117353074004736E7 ; 1.210463168876836E9 ; 2.1039972895813706E9 ; 1.1826341871556349E11 ; 0.0
107 ; 2.0106875131779857E7 ; 1.2105287576209273E9 ; 2.1241146426553752E9 ; 1.1947388188444032E11 ; 0.0
108 ; 2.0078947959568538E7 ; 1.210594359868988E9 ; 2.1442215177871552E9 ; 1.2068441064206125E11 ; 0.0
109 ; 2.0057302645943128E7 ; 1.2106599703806822E9 ; 2.1643004657467237E9 ; 1.2189500500193024E11 ; 0.0
110 ; 2.0027606339321252E7 ; 1.2107255840323772E9 ; 2.184357768392667E9 ; 1.2310566497231091E11 ; 0.0
111 ; 2.000009591898606E7 ; 1.2107911958132923E9 ; 2.204385374731988E9 ; 1.2431639055634329E11 ; 0.0
112 ; 1.9977650771707423E7 ; 1.2108568008217895E9 ; 2.224385470650974E9 ; 1.2552718175215659E11 ; 0.0
113 ; 1.994835678434041E7 ; 1.210922394261798E9 ; 2.2443631214226813E9 ; 1.2673803855297838E11 ; 0.0
114 ; 1.991950364084832E7 ; 1.2109879714393704E9 ; 2.2643114782070217E9 ; 1.2794896094724017E11 ; 0.0
115 ; 1.989710622173488E7 ; 1.2110535277593699E9 ; 2.28423098184787E9 ; 1.2915994891867955E11 ; 0.0
116 ; 1.987167471996241E7 ; 1.2111190587222724E9 ; 2.304128088069605E9 ; 1.3037100244643892E11 ; 0.0
117 ; 1.984444383591669E7 ; 1.211184559921092E9 ; 2.3239997627895675E9 ; 1.315821215051612E11 ; 0.0
118 ; 1.981150167030603E7 ; 1.211250027038418E9 ; 2.343844206625484E9 ; 1.3279330606508229E11 ; 0.0
119 ; 1.977923113961827E7 ; 1.2113154558435583E9 ; 2.36365570829579E9 ; 1.3400455609212071E11 ; 0.0
120 ; 1.9757976271872766E7 ; 1.2113808421897924E9 ; 2.3834349394354086E9 ; 1.3521587154796426E11 ; 0.0
121 ; 1.972712201922699E7 ; 1.2114461820117226E9 ; 2.4031929157072816E9 ; 1.3642725239015405E11 ; 0.0
122 ; 1.9694769847589515E7 ; 1.2115114713227212E9 ; 2.4229200377265086E9 ; 1.3763869857216577E11 ; 0.0
123 ; 1.967362881789149E7 ; 1.2115767062124772E9 ; 2.442614807574098E9 ; 1.388502100434885E11 ; 0.0
124 ; 1.9633652417521305E7 ; 1.2116418828446248E9 ; 2.4622884363919897E9 ; 1.4006178674970096E11 ; 0.0
125 ; 1.96077064715266E7 ; 1.2117069974544652E9 ; 2.481922088809511E9 ; 1.412734286325456E11 ; 0.0
126 ; 1.9575992550099306E7 ; 1.2117720463467698E9 ; 2.501529795281038E9 ; 1.4248513563000006E11 ; 0.0
127 ; 1.9543169637949355E7 ; 1.211837025893661E9 ; 2.521105787831137E9 ; 1.4369690767634683E11 ; 0.0
128 ; 1.9516623973543297E7 ; 1.2119019325325756E9 ; 2.5406489574690866E9 ; 1.4490874470224048E11 ; 0.0
129 ; 1.9485699869541455E7 ; 1.2119667627642968E9 ; 2.56016558144263E9 ; 1.4612064663477304E11 ; 0.0
130 ; 1.944215935821672E7 ; 1.2120315131510608E9 ; 2.5796512813121715E9 ; 1.4733261339753732E11 ; 0.0
131 ; 1.940223343726852E7 ; 1.2120961803147326E9 ; 2.599093440670388E9 ; 1.485446449106884E11 ; 0.0
132 ; 1.934232777683363E7 ; 1.2121607609350448E9 ; 2.618495674107657E9 ; 1.497567410910031E11 ; 0.0
133 ; 1.9305021924417768E7 ; 1.2122252517479029E9 ; 2.6378380018844905E9 ; 1.5096890185193817E11 ; 0.0
134 ; 1.9261882574686002E7 ; 1.2122896495437505E9 ; 2.6571430238089085E9 ; 1.5218112710368607E11 ; 0.0
135 ; 1.921482530815217E7 ; 1.2123539511659942E9 ; 2.6764049063835945E9 ; 1.5339341675322983E11 ; 0.0
136 ; 1.9167231140245482E7 ; 1.2124181535094814E9 ; 2.6956197316917467E9 ; 1.546057707043958E11 ; 0.0
137 ; 1.912166613551686E7 ; 1.2124822535190392E9 ; 2.714786962831992E9 ; 1.558181888579053E11 ; 0.0
138 ; 1.9065972523930795E7 ; 1.2125462481880589E9 ; 2.733908628967509E9 ; 1.5703067111142435E11 ; 0.0
139 ; 1.9023038843470693E7 ; 1.2126101345571344E9 ; 2.75297460149144E9 ; 1.582432173596124E11 ; 0.0
140 ; 1.8978352470253088E7 ; 1.212673909712749E9 ; 2.7719976403349104E9 ; 1.5945582749416953E11 ; 0.0
141 ; 1.8920244053251054E7 ; 1.212737570786007E9 ; 2.7909759928051634E9 ; 1.6066850140388226E11 ; 0.0
142 ; 1.8875211438608892E7 ; 1.2128011149514117E9 ; 2.8098962368584146E9 ; 1.6188123897466827E11 ; 0.0
143 ; 1.8827859592141885E7 ; 1.2128645394256854E9 ; 2.828771448297024E9 ; 1.630940400896197E11 ; 0.0
144 ; 1.878115953359254E7 ; 1.2129278414666324E9 ; 2.847599307889166E9 ; 1.6430690462904538E11 ; 0.0
145 ; 1.8745130979965888E7 ; 1.2129910183720398E9 ; 2.8663804674227586E9 ; 1.6551983247051202E11 ; 0.0
146 ; 1.871530310625492E7 ; 1.2130540674786181E9 ; 2.8851255984027243E9 ; 1.6673282348888406E11 ; 0.0
147 ; 1.868693606134406E7 ; 1.213116986160979E9 ; 2.9038409015089793E9 ; 1.6794587755636267E11 ; 0.0
148 ; 1.864780324220521E7 ; 1.213179771830648E9 ; 2.9225278375703235E9 ; 1.6915899454252365E11 ; 0.0
149 ; 1.861633658840086E7 ; 1.21324242193511E9 ; 2.9411756408125286E9 ; 1.703721743143543E11 ; 0.0
150 ; 1.858426819612515E7 ; 1.213304933956893E9 ; 2.9597919774009295E9 ; 1.7158541673628943E11 ; 0.0
151 ; 1.8548644645425797E7 ; 1.213367305412675E9 ; 2.9783762455970545E9 ; 1.727987216702463E11 ; 0.0
152 ; 1.8525169182942618E7 ; 1.2134295338524303E9 ; 2.9969248902424803E9 ; 1.74012088975659E11 ; 0.0
153 ; 1.848794036352615E7 ; 1.2134916168585994E9 ; 3.0154500594254227E9 ; 1.752255185095114E11 ; 0.0
154 ; 1.8455884031413417E7 ; 1.2135535520452893E9 ; 3.033937999788949E9 ; 1.7643901012637003E11 ; 0.0
155 ; 1.8421452419578474E7 ; 1.213615337057501E9 ; 3.0523938838203626E9 ; 1.776525636784153E11 ; 0.0
156 ; 1.8388054751176447E7 ; 1.2136769695703828E9 ; 3.070815336239941E9 ; 1.788661790154728E11 ; 0.0
157 ; 1.8352452426880848E7 ; 1.2137384472885096E9 ; 3.0892033909911175E9 ; 1.8007985598504318E11 ; 0.0
158 ; 1.831466944528457E7 ; 1.213799767945186E9 ; 3.1075558434179983E9 ; 1.812935944323317E11 ; 0.0
159 ; 1.8283320066108346E7 ; 1.2138609293017726E9 ; 3.1258705128632827E9 ; 1.825073942002769E11 ; 0.0
160 ; 1.8256648298270483E7 ; 1.2139219291470363E9 ; 3.144153832929391E9 ; 1.8372125512957864E11 ; 0.0
161 ; 1.8214442078044094E7 ; 1.2139827652965214E9 ; 3.1624104812276616E9 ; 1.8493517705872568E11 ; 0.0
162 ; 1.8181263408682823E7 ; 1.2140434355919409E9 ; 3.1806249233057055E9 ; 1.861491598240222E11 ; 0.0
163 ; 1.8146525549342882E7 ; 1.2141039379005895E9 ; 3.1988061867143884E9 ; 1.8736320325961414E11 ; 0.0
164 ; 1.811369082260731E7 ; 1.2141642701147761E9 ; 3.2169527122637315E9 ; 1.8857730719751474E11 ; 0.0
165 ; 1.8079156375822097E7 ; 1.2142244301512742E9 ; 3.235066403086339E9 ; 1.8979147146762952E11 ; 0.0
166 ; 1.8045443882993594E7 ; 1.2142844159507906E9 ; 3.253145559462161E9 ; 1.910056958977808E11 ; 0.0
167 ; 1.801201462242967E7 ; 1.2143442254774532E9 ; 3.271191003345155E9 ; 1.922199803137316E11 ; 0.0
168 ; 1.797140882418256E7 ; 1.214403856718312E9 ; 3.2892030179675846E9 ; 1.9343432453920905E11 ; 0.0
169 ; 1.7944430399093762E7 ; 1.214463307682861E9 ; 3.307174426791767E9 ; 1.9464872839592737E11 ; 0.0
170 ; 1.7905765093517542E7 ; 1.2145225764025729E9 ; 3.3251188571908607E9 ; 1.9586319170361023E11 ; 0.0
171 ; 1.787211361179197E7 ; 1.2145816609304485E9 ; 3.343024622284378E9 ; 1.9707771428001282E11 ; 0.0
172 ; 1.7841086116091244E7 ; 1.2146405593405833E9 ; 3.36089673589617E9 ; 1.9829229594094327E11 ; 0.0
173 ; 1.7800096173502516E7 ; 1.2146992697277467E9 ; 3.3787378220122614E9 ; 1.9950693650028384E11 ; 0.0
174 ; 1.7779439712683752E7 ; 1.214757790206973E9 ; 3.396537918185764E9 ; 2.007216357700116E11 ; 0.0
175 ; 1.774807117318122E7 ; 1.21481611891317E9 ; 3.4143173578984475E9 ; 2.0193639356021857E11 ; 0.0
176 ; 1.7719147604518518E7 ; 1.2148742540007348E9 ; 3.4320654290716286E9 ; 2.0315120967913174E11 ; 0.0
177 ; 1.769760077657942E7 ; 1.2149321936431873E9 ; 3.449784576676147E9 ; 2.0436608393313248E11 ; 0.0
178 ; 1.7665583064067006E7 ; 1.2149899360328112E9 ; 3.4674821774527264E9 ; 2.0558101612677567E11 ; 0.0
179 ; 1.764020227434934E7 ; 1.2150474793803086E9 ; 3.4851477605167933E9 ; 2.0679600606280847E11 ; 0.0
180 ; 1.7615101379817523E7 ; 1.2151048219144654E9 ; 3.5027879627911425E9 ; 2.0801105354218878E11 ; 0.0
181 ; 1.7588917428345792E7 ; 1.2151619618818264E9 ; 3.52040306417096E9 ; 2.0922615836410324E11 ; 0.0
182 ; 1.7557585837706756E7 ; 1.215218897546382E9 ; 3.5379919815993056E9 ; 2.1044132032598508E11 ; 0.0
183 ; 1.7540574113159068E7 ; 1.2152756271892638E9 ; 3.555549567437012E9 ; 2.1165653922353146E11 ; 0.0
184 ; 1.7493020998190854E7 ; 1.2153321491084504E9 ; 3.5730901415501714E9 ; 2.1287181485072073E11 ; 0.0
185 ; 1.7473844253544025E7 ; 1.2153884616184814E9 ; 3.5905831625483623E9 ; 2.140871469998292E11 ; 0.0
186 ; 1.7453659481141202E7 ; 1.215444563050182E9 ; 3.608057006801906E9 ; 2.1530253546144766E11 ; 0.0
187 ; 1.7425225821339265E7 ; 1.2155004517503958E9 ; 3.625510666283047E9 ; 2.1651798002449783E11 ; 0.0
188 ; 1.7398849093563132E7 ; 1.2155561260817242E9 ; 3.6429358921043863E9 ; 2.1773348047624823E11 ; 0.0
189 ; 1.736736038244377E7 ; 1.2156115844222763E9 ; 3.6603347411979494E9 ; 2.1894903660232996E11 ; 0.0
190 ; 1.7343551462255746E7 ; 1.215666825165425E9 ; 3.6777021015803933E9 ; 2.2016464818675223E11 ; 0.0
191 ; 1.7313675470098324E7 ; 1.2157218467195725E9 ; 3.6950456530426493E9 ; 2.2138031501191766E11 ; 0.0
192 ; 1.728983035996878E7 ; 1.21577664750792E9 ; 3.712359328512748E9 ; 2.2259603685863724E11 ; 0.0
193 ; 1.725424502265525E7 ; 1.2158312259682472E9 ; 3.7296491588727164E9 ; 2.2381181350614517E11 ; 0.0
194 ; 1.722966269881872E7 ; 1.215885580552698E9 ; 3.7469034038953714E9 ; 2.2502764473211343E11 ; 0.0
195 ; 1.7196725372609537E7 ; 1.2159397097275722E9 ; 3.76413306659419E9 ; 2.2624353031266614E11 ; 0.0
