CSV File for the Network on Day 236
1 - Minute m 
2 - Power Consumed at minute m 
3 - Power Produced at minute m 
4 - Energy Consumed since the beginning of the day 
5 - Energy Produced since the beginning of the day 
6 - Energy Lost since the beginning of the day 
 
0 ; 713403.9289610826 ; 2.1049821204155535E8 ; 0.0 ; 0.0 ; 0.0
1 ; 716925.3113488215 ; 2.1079986720729697E8 ; 713403.9289610826 ; 2.1049821204155535E8 ; 356.14
2 ; 722185.3387454561 ; 2.1171928565489632E8 ; 1430329.240309904 ; 4.212980792488523E8 ; 712.28
3 ; 725542.9186327986 ; 2.1325652774411327E8 ; 2152514.57905536 ; 6.330173649037486E8 ; 1068.42
4 ; 730778.4808040988 ; 2.154116579319942E8 ; 2878057.4976881584 ; 8.46273892647862E8 ; 1424.56
5 ; 736366.5231750638 ; 2.1818474308048487E8 ; 3608835.978492257 ; 1.0616855505798562E9 ; 1780.6999999999998
6 ; 742589.7403522665 ; 2.215758499102261E8 ; 4345202.501667321 ; 1.279870293660341E9 ; 2136.8399999999997
7 ; 745568.24271637 ; 2.2558504160233438E8 ; 5087792.242019587 ; 1.5014461435705671E9 ; 2492.9799999999996
8 ; 748931.2224524033 ; 2.3021237374659324E8 ; 5833360.484735957 ; 1.7270311851729016E9 ; 2849.1199999999994
9 ; 750202.5554370756 ; 2.35457890075715E8 ; 6582291.70718836 ; 1.9572435589194949E9 ; 3205.2599999999993
10 ; 754446.3205817475 ; 2.4132161863286388E8 ; 7332494.262625436 ; 2.1927014489952097E9 ; 3561.399999999999
11 ; 758820.9559221391 ; 2.4780356908806074E8 ; 8086940.5832071835 ; 2.4340230676280737E9 ; 3917.539999999999
12 ; 762151.7142439773 ; 2.5490373177128464E8 ; 8845761.539129322 ; 2.6818266367161345E9 ; 4273.679999999999
13 ; 768086.6323182064 ; 2.626220786393714E8 ; 9607913.253373299 ; 2.936730368487419E9 ; 4629.82
14 ; 769904.3002983475 ; 2.7095856595960885E8 ; 1.0375999885691505E7 ; 3.1993524471267905E9 ; 4985.96
15 ; 772837.2144498412 ; 2.799131381422132E8 ; 1.1145904185989853E7 ; 3.4703110130863996E9 ; 5342.1
16 ; 777456.1792725915 ; 2.894857320060683E8 ; 1.1918741400439695E7 ; 3.750224151228613E9 ; 5698.240000000001
17 ; 778646.2644552357 ; 2.99676280830533E8 ; 1.2696197579712287E7 ; 4.039709883234681E9 ; 6054.380000000001
18 ; 783842.3258667951 ; 3.1048471775366175E8 ; 1.3474843844167523E7 ; 4.339386164065214E9 ; 6410.520000000001
19 ; 787350.3812073013 ; 3.219109783184081E8 ; 1.425868617003432E7 ; 4.649870881818876E9 ; 6766.660000000002
20 ; 793434.8968459025 ; 3.3395500216501206E8 ; 1.5046036551241621E7 ; 4.971781860137284E9 ; 7122.800000000002
21 ; 797020.3683775719 ; 3.466167339882965E8 ; 1.5839471448087525E7 ; 5.305736862302297E9 ; 7478.940000000002
22 ; 799359.1686048801 ; 3.598961239282324E8 ; 1.6636491816465097E7 ; 5.652353596290593E9 ; 7835.080000000003
23 ; 802907.7308139134 ; 3.737931275628561E8 ; 1.7435850985069975E7 ; 6.012249720218825E9 ; 8191.220000000003
24 ; 807408.9671684431 ; 3.8830770564759976E8 ; 1.823875871588389E7 ; 6.386042847781681E9 ; 8547.360000000002
25 ; 811555.27106989 ; 4.008159055078186E8 ; 1.904616768305233E7 ; 6.774350553429281E9 ; 8903.500000000002
26 ; 817208.0271895594 ; 4.008247926436258E8 ; 1.9857722954122223E7 ; 7.175166458937099E9 ; 9259.640000000001
27 ; 818355.5287752989 ; 4.0083387929697144E8 ; 2.0674930981311783E7 ; 7.575991251580726E9 ; 9615.78
28 ; 819794.7992354797 ; 4.008431424799669E8 ; 2.149328651008708E7 ; 7.976825130877697E9 ; 9971.92
29 ; 823628.6786830492 ; 4.00852562130869E8 ; 2.231308130932256E7 ; 8.377668273357664E9 ; 10328.06
30 ; 824782.9815773623 ; 4.0086212072616684E8 ; 2.313670998800561E7 ; 8.778520835488533E9 ; 10684.199999999999
31 ; 833174.2165009977 ; 4.008718029373014E8 ; 2.396149296958297E7 ; 9.1793829562147E9 ; 11040.339999999998
32 ; 833394.3404408523 ; 4.008815953306227E8 ; 2.479466718608397E7 ; 9.580254759152002E9 ; 11396.479999999998
33 ; 837708.5861974012 ; 4.00891486107358E8 ; 2.562806152652482E7 ; 9.981136354482624E9 ; 11752.619999999997
34 ; 840029.6674932779 ; 4.0090146487953657E8 ; 2.646577011272222E7 ; 1.0382027840589981E10 ; 12108.759999999997
35 ; 844068.4395270733 ; 4.0091152247760916E8 ; 2.7305799780215498E7 ; 1.0782929305469517E10 ; 12464.899999999996
36 ; 848643.3279403895 ; 4.0092165078563696E8 ; 2.814986821974257E7 ; 1.1183840827947126E10 ; 12821.039999999995
37 ; 849528.0774263156 ; 4.009318426002461E8 ; 2.899851154768296E7 ; 1.1584762478732763E10 ; 13177.179999999995
38 ; 852381.1283072133 ; 4.0094209150994265E8 ; 2.9848039625109274E7 ; 1.198569432133301E10 ; 13533.319999999994
39 ; 856319.5247844735 ; 4.0095239179180276E8 ; 3.0700420753416486E7 ; 1.2386636412842953E10 ; 13889.459999999994
40 ; 858758.3805132001 ; 4.0096273832295E8 ; 3.1556740278200958E7 ; 1.2787588804634756E10 ; 14245.599999999993
41 ; 860472.271431346 ; 4.009731265046037E8 ; 3.2415498658714157E7 ; 1.3188551542957706E10 ; 14601.739999999993
42 ; 864371.2544549505 ; 4.0098355219680756E8 ; 3.3275970930145502E7 ; 1.358952466946231E10 ; 14957.879999999992
43 ; 864631.9259563829 ; 4.009940116622352E8 ; 3.414034218460045E7 ; 1.3990508221659119E10 ; 15314.019999999991
44 ; 869013.2253597908 ; 4.010045015177134E8 ; 3.500497411055683E7 ; 1.4391502233321354E10 ; 15670.15999999999
45 ; 869031.3848942812 ; 4.010150186923175E8 ; 3.587398733591662E7 ; 1.4792506734839067E10 ; 16026.29999999999
46 ; 874268.5962704513 ; 4.0102556039106804E8 ; 3.6743018720810905E7 ; 1.5193521753531385E10 ; 16382.43999999999
47 ; 875429.9716071264 ; 4.010361240634121E8 ; 3.7617287317081355E7 ; 1.5594547313922453E10 ; 16738.57999999999
48 ; 878513.4281897239 ; 4.0104670737579614E8 ; 3.849271728868848E7 ; 1.5995583437985865E10 ; 17094.71999999999
49 ; 881083.1304156125 ; 4.0105730818774694E8 ; 3.9371230716878206E7 ; 1.639663014536166E10 ; 17450.85999999999
50 ; 883114.7678116258 ; 4.0106792453096396E8 ; 4.025231384729382E7 ; 1.6797687453549406E10 ; 17806.99999999999
51 ; 884370.7208149643 ; 4.010785545910045E8 ; 4.113542861510544E7 ; 1.719875537808037E10 ; 18163.13999999999
52 ; 887644.8102905848 ; 4.010891966912039E8 ; 4.201979933592041E7 ; 1.7599833932671375E10 ; 18519.279999999988
53 ; 886989.7055592462 ; 4.0109984927852845E8 ; 4.290744414621099E7 ; 1.800092312936258E10 ; 18875.419999999987
54 ; 888323.2619982006 ; 4.0111051091110075E8 ; 4.379443385177024E7 ; 1.840202297864111E10 ; 19231.559999999987
55 ; 891506.0059893302 ; 4.0112118024717784E8 ; 4.4682757113768436E7 ; 1.880313348955221E10 ; 19587.699999999986
56 ; 890541.7183726215 ; 4.0113185603539276E8 ; 4.5574263119757764E7 ; 1.920425466979939E10 ; 19943.839999999986
57 ; 893317.2487937525 ; 4.011425371060966E8 ; 4.6464804838130385E7 ; 1.960538652583478E10 ; 20299.979999999985
58 ; 895420.2393252885 ; 4.0115322236366296E8 ; 4.7358122086924136E7 ; 2.000652906294088E10 ; 20656.119999999984
59 ; 899178.3755510009 ; 4.0116391077963316E8 ; 4.825354232624942E7 ; 2.0407682285304543E10 ; 21012.259999999984
60 ; 899188.0267497004 ; 4.011746013866008E8 ; 4.915272070180042E7 ; 2.0808846196084175E10 ; 21368.399999999983
61 ; 902055.8503022636 ; 4.01185293272744E8 ; 5.005190872855012E7 ; 2.1210020797470776E10 ; 21724.539999999983
62 ; 905519.582986448 ; 4.0119598557692957E8 ; 5.0953964578852385E7 ; 2.161120609074352E10 ; 22080.679999999982
63 ; 906299.8942786022 ; 4.0120667748432064E8 ; 5.185948416183883E7 ; 2.201240207632045E10 ; 22436.81999999998
64 ; 907989.3750514402 ; 4.0121736822242934E8 ; 5.276578405611743E7 ; 2.241360875380477E10 ; 22792.95999999998
65 ; 911774.6025928446 ; 4.012280570575647E8 ; 5.367377343116887E7 ; 2.2814826122027203E10 ; 23149.09999999998
66 ; 914489.6262567623 ; 4.0123874329162925E8 ; 5.458554803376172E7 ; 2.3216054179084766E10 ; 23505.23999999998
67 ; 915655.5357502264 ; 4.012494262592272E8 ; 5.550003766001848E7 ; 2.3617292922376396E10 ; 23861.37999999998
68 ; 917642.3573848369 ; 4.012601053250488E8 ; 5.641569319576871E7 ; 2.4018542348635624E10 ; 24217.51999999998
69 ; 919171.185277843 ; 4.0127077988150156E8 ; 5.7333335553153545E7 ; 2.4419802453960674E10 ; 24573.659999999978
70 ; 918914.5395774754 ; 4.0128144934656173E8 ; 5.825250673843139E7 ; 2.4821073233842175E10 ; 24929.799999999977
71 ; 920967.5492694816 ; 4.01292113161823E8 ; 5.917142127800886E7 ; 2.5222354683188736E10 ; 25285.939999999977
72 ; 921818.270346623 ; 4.013027707907213E8 ; 6.0092388827278346E7 ; 2.562364679635056E10 ; 25642.079999999976
73 ; 923000.4890618437 ; 4.0131342171691865E8 ; 6.101420709762497E7 ; 2.602494956714128E10 ; 25998.219999999976
74 ; 926158.5216689971 ; 4.0132406544282866E8 ; 6.193720758668682E7 ; 2.64262629888582E10 ; 26354.359999999975
75 ; 925655.606261011 ; 4.013347014882709E8 ; 6.286336610835582E7 ; 2.682758705430103E10 ; 26710.499999999975
76 ; 926135.4700288891 ; 4.0134532938923985E8 ; 6.378902171461683E7 ; 2.72289217557893E10 ; 27066.639999999974
77 ; 924997.4325078219 ; 4.0135594869677913E8 ; 6.471515718464572E7 ; 2.763026708517854E10 ; 27422.779999999973
78 ; 927614.526639385 ; 4.013665589759489E8 ; 6.564015461715354E7 ; 2.8031623033875317E10 ; 27778.919999999973
79 ; 930140.6975711387 ; 4.01377159804879E8 ; 6.656776914379293E7 ; 2.8432989592851265E10 ; 28135.059999999972
80 ; 931486.8094617712 ; 4.013877507738993E8 ; 6.749790984136407E7 ; 2.8834366752656143E10 ; 28491.19999999997
81 ; 934056.2136779503 ; 4.013983314847399E8 ; 6.842939665082584E7 ; 2.9235754503430042E10 ; 28847.33999999997
82 ; 939742.0997791409 ; 4.0140890154979515E8 ; 6.93634528645038E7 ; 2.9637152834914783E10 ; 29203.47999999997
83 ; 936949.1871089523 ; 4.014194605914454E8 ; 7.030319496428294E7 ; 3.0038561736464577E10 ; 29559.61999999997
84 ; 935939.7628893313 ; 4.0143000824143153E8 ; 7.12401441513919E7 ; 3.0439981197056023E10 ; 29915.75999999997
85 ; 940206.7618544895 ; 4.014405441402776E8 ; 7.217608391428122E7 ; 3.0841411205297455E10 ; 30271.89999999997
86 ; 941666.2543767152 ; 4.014510679367572E8 ; 7.31162906761357E7 ; 3.1242851749437733E10 ; 30628.039999999968
87 ; 942415.1536948454 ; 4.014615792873999E8 ; 7.405795693051241E7 ; 3.164430281737449E10 ; 30984.179999999968
88 ; 942138.0490217244 ; 4.014720778560343E8 ; 7.500037208420725E7 ; 3.204576439666189E10 ; 31340.319999999967
89 ; 944808.6442158469 ; 4.014825633133648E8 ; 7.594251013322897E7 ; 3.244723647451792E10 ; 31696.459999999966
90 ; 945254.1256940922 ; 4.0149303533657885E8 ; 7.688731877744482E7 ; 3.2848719037831287E10 ; 32052.599999999966
91 ; 946570.6480796804 ; 4.015034936089828E8 ; 7.783257290313892E7 ; 3.3250212073167866E10 ; 32408.739999999965
92 ; 946597.6324603318 ; 4.01513937819663E8 ; 7.87791435512186E7 ; 3.3651715566776848E10 ; 32764.879999999965
93 ; 948641.2155746432 ; 4.0152436766317165E8 ; 7.972574118367893E7 ; 3.405322950459651E10 ; 33121.01999999997
94 ; 949238.2705959246 ; 4.015347828392336E8 ; 8.067438239925356E7 ; 3.445475387225968E10 ; 33477.15999999997
95 ; 949919.6817233252 ; 4.0154518305247396E8 ; 8.162362066984949E7 ; 3.4856288655098915E10 ; 33833.29999999997
96 ; 950081.6233586767 ; 4.0155556801216435E8 ; 8.257354035157281E7 ; 3.525783383815139E10 ; 34189.439999999966
97 ; 948933.7141668684 ; 4.015659374319856E8 ; 8.35236219749315E7 ; 3.565938940616355E10 ; 34545.579999999965
98 ; 951811.0903813123 ; 4.0157629102980727E8 ; 8.447255568909836E7 ; 3.6060955343595535E10 ; 34901.719999999965
99 ; 951902.6395454556 ; 4.015866285274812E8 ; 8.542436677947967E7 ; 3.646253163462534E10 ; 35257.859999999964
100 ; 954546.1156766504 ; 4.015969496506487E8 ; 8.637626941902512E7 ; 3.6864118263152824E10 ; 35613.99999999996
101 ; 955174.7066287176 ; 4.0160725412856054E8 ; 8.733081553470178E7 ; 3.7265715212803474E10 ; 35970.13999999996
102 ; 956694.4217351626 ; 4.016175416939082E8 ; 8.82859902413305E7 ; 3.766732246693204E10 ; 36326.27999999996
103 ; 955886.4593290073 ; 4.016278120826662E8 ; 8.924268466306567E7 ; 3.8068940008625946E10 ; 36682.41999999996
104 ; 957576.9873748799 ; 4.016380650339444E8 ; 9.019857112239468E7 ; 3.847056782070861E10 ; 37038.55999999996
105 ; 955973.594548448 ; 4.016483002898494E8 ; 9.115614810976957E7 ; 3.887220588574255E10 ; 37394.69999999996
106 ; 959484.3232807356 ; 4.016585175953548E8 ; 9.211212170431802E7 ; 3.92738541860324E10 ; 37750.83999999996
107 ; 957256.4292352961 ; 4.016687166981791E8 ; 9.307160602759875E7 ; 3.9675512703627754E10 ; 38106.97999999996
108 ; 959251.7785934967 ; 4.016788973486719E8 ; 9.402886245683405E7 ; 4.0077181420325935E10 ; 38463.11999999996
109 ; 958660.2092925848 ; 4.01689059299706E8 ; 9.498811423542754E7 ; 4.047886031767461E10 ; 38819.25999999996
110 ; 962760.2675580205 ; 4.0169920230657685E8 ; 9.594677444472013E7 ; 4.088054937697431E10 ; 39175.39999999996
111 ; 962114.1484116714 ; 4.0170932612690747E8 ; 9.690953471227816E7 ; 4.128224857928089E10 ; 39531.53999999996
112 ; 963880.2822267299 ; 4.0171943052055955E8 ; 9.787164886068983E7 ; 4.16839579054078E10 ; 39887.67999999996
113 ; 961556.4001572353 ; 4.017295152495492E8 ; 9.883552914291656E7 ; 4.208567733592836E10 ; 40243.819999999956
114 ; 961647.3646958607 ; 4.0173958007796824E8 ; 9.979708554307379E7 ; 4.248740685117791E10 ; 40599.959999999955
115 ; 964043.1801626827 ; 4.0174962477190953E8 ; 1.0075873290776965E8 ; 4.2889146431255875E10 ; 40956.099999999955
116 ; 964246.5395483925 ; 4.017596490993973E8 ; 1.0172277608793233E8 ; 4.329089605602779E10 ; 41312.239999999954
117 ; 962496.3165838365 ; 4.0176965283032066E8 ; 1.0268702262748073E8 ; 4.369265570512718E10 ; 41668.379999999954
118 ; 962875.7449806026 ; 4.017796357363717E8 ; 1.0364951894406457E8 ; 4.4094425357957504E10 ; 42024.51999999995
119 ; 964323.9922484623 ; 4.017895975909866E8 ; 1.0461239468904518E8 ; 4.449620499369388E10 ; 42380.65999999995
120 ; 966985.2670459955 ; 4.017995381692902E8 ; 1.0557671868129364E8 ; 4.489799459128487E10 ; 42736.79999999995
121 ; 966755.3639902361 ; 4.0180945724804395E8 ; 1.0654370394833963E8 ; 4.5299794129454155E10 ; 43092.93999999995
122 ; 966105.0036416027 ; 4.0181935460559624E8 ; 1.0751045931232986E8 ; 4.57016035867022E10 ; 43449.07999999995
123 ; 968298.5449572168 ; 4.0182923002183604E8 ; 1.0847656431597146E8 ; 4.61034229413078E10 ; 43805.21999999995
124 ; 963526.7979021731 ; 4.018390832781488E8 ; 1.0944486286092868E8 ; 4.6505252171329636E10 ; 44161.35999999995
125 ; 965158.9855548684 ; 4.0184891415737474E8 ; 1.1040838965883085E8 ; 4.690709125460779E10 ; 44517.49999999995
126 ; 963676.0994770372 ; 4.018587224437699E8 ; 1.1137354864438573E8 ; 4.730894016876516E10 ; 44873.63999999995
127 ; 963284.0869017546 ; 4.018685079229685E8 ; 1.1233722474386276E8 ; 4.771079889120893E10 ; 45229.77999999995
128 ; 962810.7722964272 ; 4.0187827038194823E8 ; 1.1330050883076452E8 ; 4.81126673991319E10 ; 45585.91999999995
129 ; 960933.2161816627 ; 4.0188800960899687E8 ; 1.1426331960306095E8 ; 4.851454566951385E10 ; 45942.05999999995
130 ; 962561.4839675957 ; 4.0189772539368063E8 ; 1.1522425281924261E8 ; 4.891643367912284E10 ; 46298.199999999946
131 ; 959871.0979646002 ; 4.019074175268148E8 ; 1.1618681430321021E8 ; 4.9318331404516525E10 ; 46654.339999999946
132 ; 961136.4501101264 ; 4.0191708580043554E8 ; 1.1714668540117481E8 ; 4.972023882204334E10 ; 47010.479999999945
133 ; 960844.2078111583 ; 4.01926730007773E8 ; 1.1810782185128494E8 ; 5.012215590784378E10 ; 47366.619999999944
134 ; 957769.352766793 ; 4.0193634994322634E8 ; 1.190686660590961E8 ; 5.0524082637851555E10 ; 47722.759999999944
135 ; 960625.8624306816 ; 4.0194594540233994E8 ; 1.200264354118629E8 ; 5.0926018987794785E10 ; 48078.89999999994
136 ; 958991.8884622696 ; 4.019555161817807E8 ; 1.2098706127429357E8 ; 5.132796493319713E10 ; 48435.03999999994
137 ; 959662.4788421659 ; 4.0196506207931674E8 ; 1.2194605316275585E8 ; 5.172992044937891E10 ; 48791.17999999994
138 ; 960277.4094287112 ; 4.019745828937969E8 ; 1.2290571564159802E8 ; 5.213188551145822E10 ; 49147.31999999994
139 ; 958847.2643668633 ; 4.019840784251323E8 ; 1.2386599305102673E8 ; 5.253386009435202E10 ; 49503.45999999994
140 ; 958167.444052199 ; 4.0199354847427726E8 ; 1.248248403153936E8 ; 5.293584417277715E10 ; 49859.59999999994
141 ; 957197.2888428947 ; 4.020029928432127E8 ; 1.257830077594458E8 ; 5.333783772125143E10 ; 50215.73999999994
142 ; 960402.9113151408 ; 4.0201241133493006E8 ; 1.267402050482887E8 ; 5.373984071409464E10 ; 50571.87999999994
143 ; 958891.4237954323 ; 4.020218037534152E8 ; 1.2770060795960385E8 ; 5.414185312542957E10 ; 50928.01999999994
144 ; 956921.3037555639 ; 4.020311699036346E8 ; 1.2865949938339928E8 ; 5.454387492918299E10 ; 51284.15999999994
145 ; 956191.0103625613 ; 4.020405095915211E8 ; 1.2961642068715484E8 ; 5.4945906099086624E10 ; 51640.29999999994
146 ; 958843.8837294853 ; 4.02049822623961E8 ; 1.3057261169751741E8 ; 5.534794660867815E10 ; 51996.43999999994
147 ; 960005.8514585632 ; 4.020591088087816E8 ; 1.315314555812469E8 ; 5.574999643130211E10 ; 52352.579999999936
148 ; 961008.8942484396 ; 4.020683679547399E8 ; 1.3249146143270546E8 ; 5.615205554011089E10 ; 52708.719999999936
149 ; 959178.8257499603 ; 4.020775998715109E8 ; 1.334524703269539E8 ; 5.6554123908065636E10 ; 53064.859999999935
150 ; 962311.654719726 ; 4.0208680436967784E8 ; 1.3441164915270385E8 ; 5.695620150793715E10 ; 53420.999999999935
151 ; 965587.8263119137 ; 4.020959812607217E8 ; 1.353739608074236E8 ; 5.735828831230682E10 ; 53777.139999999934
152 ; 965249.0701850961 ; 4.021051303570124E8 ; 1.363395486337355E8 ; 5.776038429356754E10 ; 54133.27999999993
153 ; 964719.8631358678 ; 4.021142514717997E8 ; 1.373047977039206E8 ; 5.816248942392455E10 ; 54489.41999999993
154 ; 969734.0458426346 ; 4.021233444192047E8 ; 1.3826951756705648E8 ; 5.8564603675396355E10 ; 54845.55999999993
155 ; 971110.2882844687 ; 4.021324090142125E8 ; 1.3923925161289912E8 ; 5.896672701981556E10 ; 55201.69999999993
156 ; 974357.9872424225 ; 4.0214144507266426E8 ; 1.402103619011836E8 ; 5.936885942882977E10 ; 55557.83999999993
157 ; 972247.245061836 ; 4.0215045241125035E8 ; 1.4118471988842604E8 ; 5.9771000873902435E10 ; 55913.97999999993
158 ; 973927.1647569851 ; 4.0215943084750414E8 ; 1.4215696713348788E8 ; 6.017315132631368E10 ; 56270.11999999993
159 ; 975086.1069089205 ; 4.02168380199795E8 ; 1.4313089429824486E8 ; 6.057531075716119E10 ; 56626.25999999993
160 ; 977034.9023181051 ; 4.0217730028732324E8 ; 1.4410598040515378E8 ; 6.0977479137360985E10 ; 56982.39999999993
161 ; 981176.7795000935 ; 4.0218619093011427E8 ; 1.4508301530747187E8 ; 6.137965643764831E10 ; 57338.53999999993
162 ; 979550.7511069775 ; 4.021950519490132E8 ; 1.4606419208697197E8 ; 6.178184262857842E10 ; 57694.67999999993
163 ; 980555.3411171053 ; 4.022038831656804E8 ; 1.4704374283807895E8 ; 6.2184037680527435E10 ; 58050.81999999993
164 ; 982388.9958703157 ; 4.022126844025869E8 ; 1.4802429817919606E8 ; 6.2586241563693115E10 ; 58406.95999999993
165 ; 982830.2962534898 ; 4.022214554830097E8 ; 1.4900668717506638E8 ; 6.29884542480957E10 ; 58763.099999999926
166 ; 982387.4725952344 ; 4.0223019623102826E8 ; 1.4998951747131988E8 ; 6.339067570357871E10 ; 59119.239999999925
167 ; 982629.0086643191 ; 4.022389064715206E8 ; 1.5097190494391513E8 ; 6.379290589980974E10 ; 59475.379999999925
168 ; 984313.0730738813 ; 4.022475860301597E8 ; 1.5195453395257944E8 ; 6.419514480628126E10 ; 59831.519999999924
169 ; 986461.7647401062 ; 4.022562347334104E8 ; 1.5293884702565333E8 ; 6.459739239231142E10 ; 60187.65999999992
170 ; 986050.7770063847 ; 4.022648524085264E8 ; 1.5392530879039344E8 ; 6.499964862704483E10 ; 60543.79999999992
171 ; 989208.9018372542 ; 4.022734388835474E8 ; 1.5491135956739983E8 ; 6.5401913479453354E10 ; 60899.93999999992
172 ; 990064.321065506 ; 4.022819939872964E8 ; 1.559005684692371E8 ; 6.58041869183369E10 ; 61256.07999999992
173 ; 992996.4343474247 ; 4.0229051754937744E8 ; 1.568906327903026E8 ; 6.6206468912324196E10 ; 61612.21999999992
174 ; 993537.498703197 ; 4.0229900940017354E8 ; 1.5788362922465003E8 ; 6.660875942987357E10 ; 61968.35999999992
175 ; 996606.0052493527 ; 4.0230746937084424E8 ; 1.5887716672335324E8 ; 6.701105843927375E10 ; 62324.49999999992
176 ; 997011.74506312 ; 4.023158972933242E8 ; 1.598737727286026E8 ; 6.741336590864459E10 ; 62680.63999999992
177 ; 999269.7021504395 ; 4.0232429300032115E8 ; 1.608707844736657E8 ; 6.781568180593792E10 ; 63036.77999999992
