CSV File for the Network on Day 13
1 - Minute m 
2 - Power Consumed at minute m 
3 - Power Produced at minute m 
4 - Energy Consumed since the beginning of the day 
5 - Energy Produced since the beginning of the day 
6 - Energy Lost since the beginning of the day 
 
0 ; 4536639.99563387 ; 2.105321022314819E8 ; 0.0 ; 0.0 ; 0.0
1 ; 4540989.738450804 ; 2.108348192322055E8 ; 4536639.99563387 ; 2.105321022314819E8 ; 356.14
2 ; 4543072.056840783 ; 2.1175529267323583E8 ; 9077629.734084673 ; 4.213669214636874E8 ; 712.28
3 ; 4549920.112051275 ; 2.132935629409603E8 ; 1.3620701790925456E7 ; 6.331222141369233E8 ; 1068.42
4 ; 4555280.4761089 ; 2.1544967062714666E8 ; 1.817062190297673E7 ; 8.464157770778836E8 ; 1424.56
5 ; 4559373.375681725 ; 2.182236553879689E8 ; 2.272590237908563E7 ; 1.0618654477050302E9 ; 1780.6999999999998
6 ; 4563311.753504389 ; 2.21615554583973E8 ; 2.7285275754767355E7 ; 1.280089103092999E9 ; 2136.8399999999997
7 ; 4568562.204520244 ; 2.256254017675051E8 ; 3.1848587508271743E7 ; 1.501704657676972E9 ; 2492.9799999999996
8 ; 4570698.508261601 ; 2.3025322512627304E8 ; 3.641714971279199E7 ; 1.727330059444477E9 ; 2849.1199999999994
9 ; 4574004.591069166 ; 2.3549904602672154E8 ; 4.0987848221053585E7 ; 1.9575832845707502E9 ; 3205.2599999999993
10 ; 4576822.820239252 ; 2.4136287781720322E8 ; 4.556185281212275E7 ; 2.1930823305974717E9 ; 3561.399999999999
11 ; 4580143.038038365 ; 2.4784472503906727E8 ; 5.0138675632362E7 ; 2.4344452084146748E9 ; 3917.539999999999
12 ; 4583310.409375705 ; 2.5494458315096444E8 ; 5.4718818670400366E7 ; 2.682289933453742E9 ; 4273.679999999999
13 ; 4585741.65302735 ; 2.6266243880454212E8 ; 5.930212907977607E7 ; 2.9372345166047063E9 ; 4629.82
14 ; 4590341.367334238 ; 2.709982706333558E8 ; 6.388787073280342E7 ; 3.1998969554092484E9 ; 4985.96
15 ; 4593523.256641658 ; 2.7995205044969726E8 ; 6.847821210013765E7 ; 3.470895226042604E9 ; 5342.1
16 ; 4595110.804874551 ; 2.8952374470122075E8 ; 7.30717353567793E7 ; 3.750847276492301E9 ; 5698.240000000001
17 ; 4598225.572698682 ; 2.9971331602738005E8 ; 7.766684616165386E7 ; 4.0403710211935215E9 ; 6054.380000000001
18 ; 4601757.415458221 ; 3.1052072477200127E8 ; 8.226507173435254E7 ; 4.3400843372209015E9 ; 6410.520000000001
19 ; 4604502.114642698 ; 3.219459303433166E8 ; 8.686682914981076E7 ; 4.650605061992903E9 ; 6766.660000000002
20 ; 4609939.374650465 ; 3.339888923549386E8 ; 9.147133126445346E7 ; 4.97255099233622E9 ; 7122.800000000002
21 ; 4611553.914097253 ; 3.4664957152079993E8 ; 9.608127063910392E7 ; 5.306539884691158E9 ; 7478.940000000002
22 ; 4614131.0689792605 ; 3.5992793030809593E8 ; 1.0069282455320117E8 ; 5.653189456211958E9 ; 7835.080000000003
23 ; 4619016.896627857 ; 3.7382393337271357E8 ; 1.0530695562218043E8 ; 6.013117386520054E9 ; 8191.220000000003
24 ; 4619994.521536819 ; 3.8833754781228334E8 ; 1.0992597251880829E8 ; 6.386941319892767E9 ; 8547.360000000002
25 ; 4624236.43534141 ; 4.0084482507144225E8 ; 1.145459670403451E8 ; 6.77527886770505E9 ; 8903.500000000002
26 ; 4627917.183407703 ; 4.008528330166752E8 ; 1.1917020347568652E8 ; 7.176123692776493E9 ; 9259.640000000001
27 ; 4632111.407066901 ; 4.008610849109769E8 ; 1.2379812065909423E8 ; 7.576976525793168E9 ; 9615.78
28 ; 4634296.617148974 ; 4.0086955778197825E8 ; 1.2843023206616113E8 ; 7.977837610704145E9 ; 9971.92
29 ; 4635678.816609879 ; 4.008782308529316E8 ; 1.330645286833101E8 ; 8.378707168486124E9 ; 10328.06
30 ; 4637760.022114601 ; 4.0088708537216663E8 ; 1.3770020749991998E8 ; 8.779585399339056E9 ; 10684.199999999999
31 ; 4641196.094921684 ; 4.0089610443825495E8 ; 1.423379675220346E8 ; 9.180472484711224E9 ; 11040.339999999998
32 ; 4645070.663325496 ; 4.0090527282821643E8 ; 1.4697916361695626E8 ; 9.581368589149479E9 ; 11396.479999999998
33 ; 4646845.906783225 ; 4.009145768334944E8 ; 1.5162423428028175E8 ; 9.982273861977695E9 ; 11752.619999999997
34 ; 4652353.973952098 ; 4.009240041065034E8 ; 1.5627108018706498E8 ; 1.038318843881119E10 ; 12108.759999999997
35 ; 4651347.609173485 ; 4.0093354351918316E8 ; 1.6092343416101706E8 ; 1.0784112442917692E10 ; 12464.899999999996
36 ; 4654069.755036051 ; 4.0094318503404635E8 ; 1.6557478177019054E8 ; 1.1185045986436874E10 ; 12821.039999999995
37 ; 4657017.825163265 ; 4.009529195875783E8 ; 1.702288515252266E8 ; 1.158598917147092E10 ; 13177.179999999995
38 ; 4658116.542885474 ; 4.009627389854534E8 ; 1.7488586935038987E8 ; 1.1986942091058498E10 ; 13533.319999999994
39 ; 4659769.989137926 ; 4.0097263580880034E8 ; 1.7954398589327535E8 ; 1.2387904830043951E10 ; 13889.459999999994
40 ; 4662131.9374492485 ; 4.009826033306315E8 ; 1.8420375588241327E8 ; 1.278887746585275E10 ; 14245.599999999993
41 ; 4665224.404924362 ; 4.0099263544151413E8 ; 1.888658878198625E8 ; 1.3189860069183382E10 ; 14601.739999999993
42 ; 4664555.679322612 ; 4.0100272658356845E8 ; 1.9353111222478688E8 ; 1.3590852704624897E10 ; 14957.879999999992
43 ; 4666654.76211503 ; 4.010128716919217E8 ; 1.9819566790410948E8 ; 1.3991855431208466E10 ; 15314.019999999991
44 ; 4667942.944002654 ; 4.0102306614280325E8 ; 2.028623226662245E8 ; 1.4392868302900387E10 ; 15670.15999999999
45 ; 4669471.146741514 ; 4.0103330570753497E8 ; 2.0753026561022717E8 ; 1.479389136904319E10 ; 16026.29999999999
46 ; 4672586.338020397 ; 4.0104358651174104E8 ; 2.1219973675696868E8 ; 1.5194924674750725E10 ; 16382.43999999999
47 ; 4672912.372933786 ; 4.010539049991697E8 ; 2.1687232309498906E8 ; 1.5595968261262466E10 ; 16738.57999999999
48 ; 4677806.539019685 ; 4.010642578995857E8 ; 2.2154523546792284E8 ; 1.5997022166261637E10 ; 17094.71999999999
49 ; 4676225.5090063065 ; 4.010746422002523E8 ; 2.262230420069425E8 ; 1.6398086424161222E10 ; 17450.85999999999
50 ; 4679824.27148792 ; 4.010850551205789E8 ; 2.3089926751594883E8 ; 1.6799161066361475E10 ; 17806.99999999999
51 ; 4679549.809414258 ; 4.010954940895587E8 ; 2.3557909178743675E8 ; 1.7200246121482056E10 ; 18163.13999999999
52 ; 4679516.3461035015 ; 4.011059567256682E8 ; 2.4025864159685102E8 ; 1.7601341615571613E10 ; 18519.279999999988
53 ; 4678873.777560975 ; 4.0111644081893665E8 ; 2.449381579429545E8 ; 1.8002447572297283E10 ; 18875.419999999987
54 ; 4680874.823441264 ; 4.0112694431493354E8 ; 2.496170317205155E8 ; 1.840356401311622E10 ; 19231.559999999987
55 ; 4681462.772543556 ; 4.011374653004497E8 ; 2.5429790654395676E8 ; 1.8804690957431152E10 ; 19587.699999999986
56 ; 4683712.894521303 ; 4.0114800199067634E8 ; 2.589793693165003E8 ; 1.92058284227316E10 ; 19943.839999999986
57 ; 4684000.515340189 ; 4.0115855271770954E8 ; 2.636630822110216E8 ; 1.960697642472228E10 ; 20299.979999999985
58 ; 4684845.213190966 ; 4.011691159202312E8 ; 2.6834708272636178E8 ; 2.0008134977439987E10 ; 20656.119999999984
59 ; 4683865.84048274 ; 4.011796901342319E8 ; 2.730319279395527E8 ; 2.0409304093360218E10 ; 21012.259999999984
60 ; 4687098.76820491 ; 4.011902739846596E8 ; 2.7771579378003544E8 ; 2.081048378349445E10 ; 21368.399999999983
61 ; 4686262.6925129425 ; 4.0120086617789316E8 ; 2.8240289254824036E8 ; 2.121167405747911E10 ; 21724.539999999983
62 ; 4688830.401497256 ; 4.012114654949484E8 ; 2.870891552407533E8 ; 2.1612874923657005E10 ; 22080.679999999982
63 ; 4688235.758008602 ; 4.0122207078533804E8 ; 2.9177798564225054E8 ; 2.2014086389151955E10 ; 22436.81999999998
64 ; 4689427.439692977 ; 4.0123268096151674E8 ; 2.9646622140025914E8 ; 2.2415308459937294E10 ; 22792.95999999998
65 ; 4692601.9478809 ; 4.012432949938458E8 ; 3.011556488399521E8 ; 2.281654114089881E10 ; 23149.09999999998
66 ; 4691462.15304559 ; 4.012539119060272E8 ; 3.0584825078783303E8 ; 2.321778443589266E10 ; 23505.23999999998
67 ; 4692383.13135737 ; 4.01264530770954E8 ; 3.105397129408786E8 ; 2.3619038347798687E10 ; 23861.37999999998
68 ; 4693156.788359304 ; 4.01275150706938E8 ; 3.15232096072236E8 ; 2.402030287856964E10 ; 24217.51999999998
69 ; 4694435.518805852 ; 4.01285770874274E8 ; 3.199252528605953E8 ; 2.442157802927658E10 ; 24573.659999999978
70 ; 4693827.067063591 ; 4.012963904721071E8 ; 3.2461968837940115E8 ; 2.4822863800150856E10 ; 24929.799999999977
71 ; 4690835.306445046 ; 4.0130700873557436E8 ; 3.293135154464647E8 ; 2.5224160190622963E10 ; 25285.939999999977
72 ; 4694206.879639076 ; 4.013176249331921E8 ; 3.340043507529098E8 ; 2.5625467199358536E10 ; 25642.079999999976
73 ; 4694460.467403825 ; 4.013282383644661E8 ; 3.3869855763254887E8 ; 2.602678482429173E10 ; 25998.219999999976
74 ; 4690188.011389287 ; 4.013388483577031E8 ; 3.433930180999527E8 ; 2.6428113062656197E10 ; 26354.359999999975
75 ; 4691688.342825904 ; 4.0134945426800394E8 ; 3.48083206111342E8 ; 2.68294519110139E10 ; 26710.499999999975
76 ; 4693192.452661745 ; 4.0136005547542185E8 ; 3.527748944541679E8 ; 2.7230801365281906E10 ; 27066.639999999974
77 ; 4690959.765190608 ; 4.013706513832706E8 ; 3.5746808690682966E8 ; 2.7632161420757328E10 ; 27422.779999999973
78 ; 4691622.559426952 ; 4.013812414165683E8 ; 3.6215904667202026E8 ; 2.80335320721406E10 ; 27778.919999999973
79 ; 4690218.740635535 ; 4.013918250206045E8 ; 3.668506692314472E8 ; 2.8434913313557167E10 ; 28135.059999999972
80 ; 4690856.289250477 ; 4.014024016596205E8 ; 3.7154088797208273E8 ; 2.883630513857777E10 ; 28491.19999999997
81 ; 4692715.402748674 ; 4.014129708155911E8 ; 3.762317442613332E8 ; 2.9237707540237392E10 ; 28847.33999999997
82 ; 4692251.425983987 ; 4.0142353198710084E8 ; 3.8092445966408193E8 ; 2.9639120511052982E10 ; 29203.47999999997
83 ; 4692860.175770576 ; 4.0143408468830466E8 ; 3.856167110900659E8 ; 3.0040544043040085E10 ; 29559.61999999997
84 ; 4694167.039863039 ; 4.0144462844796705E8 ; 3.903095712658365E8 ; 3.044197812772839E10 ; 29915.75999999997
85 ; 4693526.015588561 ; 4.014551628085724E8 ; 3.950037383056995E8 ; 3.0843422756176357E10 ; 30271.89999999997
86 ; 4692220.109241266 ; 4.014656873255007E8 ; 3.996972643212881E8 ; 3.124487791898493E10 ; 30628.039999999968
87 ; 4690785.283155192 ; 4.0147620156626344E8 ; 4.0438948443052936E8 ; 3.164634360631043E10 ; 30984.179999999968
88 ; 4690233.339045419 ; 4.0148670510979354E8 ; 4.0908026971368456E8 ; 3.2047819807876694E10 ; 31340.319999999967
89 ; 4689167.696284162 ; 4.014971975457868E8 ; 4.1377050305272996E8 ; 3.244930651298649E10 ; 31696.459999999966
90 ; 4690209.263624982 ; 4.015076784740894E8 ; 4.1845967074901414E8 ; 3.2850803710532276E10 ; 32052.599999999966
91 ; 4691994.126773181 ; 4.015181475041278E8 ; 4.231498800126391E8 ; 3.3252311389006367E10 ; 32408.739999999965
92 ; 4690257.319128732 ; 4.0152860425437826E8 ; 4.278418741394123E8 ; 3.3653829536510494E10 ; 32764.879999999965
93 ; 4687573.986014563 ; 4.0153904835187256E8 ; 4.3253213145854104E8 ; 3.4055358140764874E10 ; 33121.01999999997
94 ; 4687698.288632025 ; 4.01549479431737E8 ; 4.372197054445556E8 ; 3.4456897189116745E10 ; 33477.15999999997
95 ; 4686719.995419124 ; 4.015598971367625E8 ; 4.419074037331876E8 ; 3.4858446668548485E10 ; 33833.29999999997
96 ; 4687284.901667982 ; 4.0157030111700296E8 ; 4.4659412372860676E8 ; 3.526000656568525E10 ; 34189.439999999966
97 ; 4684022.842072239 ; 4.015806910294002E8 ; 4.512814086302748E8 ; 3.566157686680225E10 ; 34545.579999999965
98 ; 4684099.786719823 ; 4.015910665374334E8 ; 4.55965431472347E8 ; 3.606315755783166E10 ; 34901.719999999965
99 ; 4684025.677262965 ; 4.0160142731079054E8 ; 4.606495312590668E8 ; 3.646474862436909E10 ; 35257.859999999964
100 ; 4683775.845117777 ; 4.016117730250616E8 ; 4.653335569363298E8 ; 3.686635005167988E10 ; 35613.99999999996
101 ; 4681053.087820977 ; 4.016221033614509E8 ; 4.700173327814475E8 ; 3.726796182470494E10 ; 35970.13999999996
102 ; 4682086.376690447 ; 4.016324180065071E8 ; 4.7469838586926854E8 ; 3.766958392806639E10 ; 36326.27999999996
103 ; 4680758.921360768 ; 4.016427166518706E8 ; 4.79380472245959E8 ; 3.80712163460729E10 ; 36682.41999999996
104 ; 4678891.844685586 ; 4.016529989940361E8 ; 4.840612311673198E8 ; 3.847285906272477E10 ; 37038.55999999996
105 ; 4677727.394110315 ; 4.016632647341298E8 ; 4.887401230120054E8 ; 3.88745120617188E10 ; 37394.69999999996
106 ; 4677129.190037721 ; 4.016735135777001E8 ; 4.934178504061157E8 ; 3.9276175326452934E10 ; 37750.83999999996
107 ; 4675106.102659114 ; 4.016837452345208E8 ; 4.9809497959615344E8 ; 3.967784884003063E10 ; 38106.97999999996
108 ; 4675215.644674932 ; 4.0169395941840637E8 ; 5.0277008569881254E8 ; 4.007953258526515E10 ; 38463.11999999996
109 ; 4674517.703509838 ; 4.017041558470373E8 ; 5.074453013434875E8 ; 4.0481226544683556E10 ; 38819.25999999996
110 ; 4671768.65516158 ; 4.01714334241797E8 ; 5.1211981904699737E8 ; 4.0882930700530594E10 ; 39175.39999999996
111 ; 4671759.050504637 ; 4.017244943276167E8 ; 5.167915877021589E8 ; 4.128464503477239E10 ; 39531.53999999996
112 ; 4671494.587822627 ; 4.0173463583283055E8 ; 5.2146334675266355E8 ; 4.1686369529100006E10 ; 39887.67999999996
113 ; 4669545.462877216 ; 4.0174475848903835E8 ; 5.2613484134048617E8 ; 4.208810416493284E10 ; 40243.819999999956
114 ; 4668735.037401458 ; 4.017548620309763E8 ; 5.308043868033634E8 ; 4.2489848923421875E10 ; 40599.959999999955
115 ; 4664548.531786769 ; 4.017649461963948E8 ; 5.354731218407648E8 ; 4.289160378545285E10 ; 40956.099999999955
116 ; 4664251.837762374 ; 4.017750107259437E8 ; 5.401376703725516E8 ; 4.329336873164925E10 ; 41312.239999999954
117 ; 4660615.176728576 ; 4.017850553630631E8 ; 5.448019222103139E8 ; 4.369514374237519E10 ; 41668.379999999954
118 ; 4660969.207526836 ; 4.017950798538811E8 ; 5.494625373870425E8 ; 4.409692879773825E10 ; 42024.51999999995
119 ; 4658070.867791802 ; 4.0180508394711614E8 ; 5.541235065945693E8 ; 4.449872387759213E10 ; 42380.65999999995
120 ; 4656680.814593238 ; 4.018150673939855E8 ; 5.587815774623611E8 ; 4.4900528961539246E10 ; 42736.79999999995
121 ; 4657464.212876196 ; 4.018250299481188E8 ; 5.634382582769543E8 ; 4.530234402893323E10 ; 43092.93999999995
122 ; 4657068.037873136 ; 4.018349713654752E8 ; 5.680957224898305E8 ; 4.570416905888135E10 ; 43449.07999999995
123 ; 4652536.57744121 ; 4.018448914042659E8 ; 5.727527905277036E8 ; 4.6106004030246826E10 ; 43805.21999999995
124 ; 4650721.703150584 ; 4.018547898248807E8 ; 5.774053271051449E8 ; 4.650784892165109E10 ; 44161.35999999995
125 ; 4646682.641382606 ; 4.018646663898183E8 ; 5.820560488082955E8 ; 4.6909703711475975E10 ; 44517.49999999995
126 ; 4643833.994140196 ; 4.0187452086361974E8 ; 5.867027314496781E8 ; 4.731156837786579E10 ; 44873.63999999995
127 ; 4639710.991173982 ; 4.018843530128064E8 ; 5.913465654438182E8 ; 4.771344289872941E10 ; 45229.77999999995
128 ; 4639265.625497888 ; 4.0189416260582024E8 ; 5.959862764349922E8 ; 4.811532725174222E10 ; 45585.91999999995
129 ; 4635572.4213122735 ; 4.019039494129677E8 ; 6.006255420604901E8 ; 4.851722141434804E10 ; 45942.05999999995
130 ; 4630848.427542494 ; 4.019137132063662E8 ; 6.052611144818025E8 ; 4.8919125363761E10 ; 46298.199999999946
131 ; 4628673.092038709 ; 4.0192345375989366E8 ; 6.098919629093449E8 ; 4.932103907696737E10 ; 46654.339999999946
132 ; 4627313.014018585 ; 4.019331708491403E8 ; 6.145206360013837E8 ; 4.9722962530727264E10 ; 47010.479999999945
133 ; 4623984.923138799 ; 4.019428642513629E8 ; 6.191479490154022E8 ; 5.012489570157641E10 ; 47366.619999999944
134 ; 4619649.7317213025 ; 4.019525337454419E8 ; 6.23771933938541E8 ; 5.0526838565827774E10 ; 47722.759999999944
135 ; 4619502.357311842 ; 4.019621791118398E8 ; 6.283915836702623E8 ; 5.092879109957322E10 ; 48078.89999999994
136 ; 4616374.908941664 ; 4.0197180013256204E8 ; 6.330110860275742E8 ; 5.133075327868506E10 ; 48435.03999999994
137 ; 4615153.197752635 ; 4.019813965911205E8 ; 6.376274609365158E8 ; 5.173272507881762E10 ; 48791.17999999994
138 ; 4614253.819894674 ; 4.019909682724974E8 ; 6.422426141342684E8 ; 5.213470647540874E10 ; 49147.31999999994
139 ; 4609997.643530139 ; 4.020005149631125E8 ; 6.468568679541631E8 ; 5.253669744368124E10 ; 49503.45999999994
140 ; 4607799.609800704 ; 4.0201003645079046E8 ; 6.514668655976932E8 ; 5.293869795864435E10 ; 49859.59999999994
141 ; 4604128.39971327 ; 4.020195325247314E8 ; 6.560746652074939E8 ; 5.334070799509514E10 ; 50215.73999999994
142 ; 4602203.359432465 ; 4.020290029754813E8 ; 6.606787936072072E8 ; 5.374272752761987E10 ; 50571.87999999994
143 ; 4598317.932946319 ; 4.02038447594905E8 ; 6.652809969666396E8 ; 5.414475653059535E10 ; 50928.01999999994
144 ; 4596400.531687001 ; 4.020478661761603E8 ; 6.69879314899586E8 ; 5.4546794978190254E10 ; 51284.15999999994
145 ; 4593939.032038544 ; 4.020572585136725E8 ; 6.74475715431273E8 ; 5.494884284436642E10 ; 51640.29999999994
146 ; 4592972.508207254 ; 4.020666244031115E8 ; 6.790696544633116E8 ; 5.535090010288009E10 ; 51996.43999999994
147 ; 4591001.472596331 ; 4.020759636413691E8 ; 6.836626269715188E8 ; 5.57529667272832E10 ; 52352.579999999936
148 ; 4590681.42076509 ; 4.0208527602653766E8 ; 6.88253628444115E8 ; 5.6155042690924576E10 ; 52708.719999999936
149 ; 4588369.563298431 ; 4.0209456135788965E8 ; 6.928443098648801E8 ; 5.655712796695111E10 ; 53064.859999999935
150 ; 4588532.068112315 ; 4.021038194358586E8 ; 6.974326794281785E8 ; 5.6959222528309E10 ; 53420.999999999935
151 ; 4588548.2927921405 ; 4.021130500620203E8 ; 7.020212114962909E8 ; 5.736132634774486E10 ; 53777.139999999934
152 ; 4584409.564195595 ; 4.02122253039076E8 ; 7.06609759789083E8 ; 5.776343939780688E10 ; 54133.27999999993
153 ; 4584254.513823849 ; 4.021314281708348E8 ; 7.111941693532786E8 ; 5.8165561650845955E10 ; 54489.41999999993
154 ; 4582448.899589107 ; 4.021405752621987E8 ; 7.157784238671025E8 ; 5.856769307901679E10 ; 54845.55999999993
155 ; 4584371.290314354 ; 4.0214969411914694E8 ; 7.203608727666916E8 ; 5.896983365427899E10 ; 55201.69999999993
156 ; 4583177.179603559 ; 4.02158784548722E8 ; 7.249452440570059E8 ; 5.937198334839814E10 ; 55557.83999999993
157 ; 4583427.765729458 ; 4.021678463590156E8 ; 7.295284212366095E8 ; 5.977414213294686E10 ; 55913.97999999993
158 ; 4579301.226989177 ; 4.0217687935915613E8 ; 7.341118490023389E8 ; 6.017630997930588E10 ; 56270.11999999993
159 ; 4576149.5834147455 ; 4.0218588335929585E8 ; 7.38691150229328E8 ; 6.057848685866503E10 ; 56626.25999999993
160 ; 4578302.132272971 ; 4.021948581705996E8 ; 7.432672998127428E8 ; 6.098067274202433E10 ; 56982.39999999993
161 ; 4576587.009436801 ; 4.022038036052332E8 ; 7.478456019450158E8 ; 6.138286760019493E10 ; 57338.53999999993
162 ; 4574257.94227479 ; 4.022127194763533E8 ; 7.524221889544526E8 ; 6.178507140380016E10 ; 57694.67999999993
163 ; 4574015.467857748 ; 4.0222160559809685E8 ; 7.569964468967274E8 ; 6.218728412327652E10 ; 58050.81999999993
164 ; 4571306.019307454 ; 4.022304617855715E8 ; 7.615704623645852E8 ; 6.258950572887462E10 ; 58406.95999999993
165 ; 4567315.612320534 ; 4.02239287854847E8 ; 7.661417683838927E8 ; 6.299173619066019E10 ; 58763.099999999926
166 ; 4568535.310197826 ; 4.02248083622946E8 ; 7.707090839962132E8 ; 6.339397547851504E10 ; 59119.239999999925
167 ; 4567328.9757838445 ; 4.0225684890783596E8 ; 7.75277619306411E8 ; 6.3796223562137985E10 ; 59475.379999999925
168 ; 4565120.089987474 ; 4.022655835284215E8 ; 7.798449482821949E8 ; 6.419848041104582E10 ; 59831.519999999924
169 ; 4562921.862187863 ; 4.0227428730453676E8 ; 7.844100683721824E8 ; 6.460074599457424E10 ; 60187.65999999992
170 ; 4562289.295191111 ; 4.0228296005693865E8 ; 7.889729902343702E8 ; 6.500302028187878E10 ; 60543.79999999992
171 ; 4560174.662461679 ; 4.022916016072997E8 ; 7.935352795295614E8 ; 6.5405303241935715E10 ; 60899.93999999992
172 ; 4556292.901303829 ; 4.023002117782025E8 ; 7.98095454192023E8 ; 6.5807594843543015E10 ; 61256.07999999992
173 ; 4557396.3868142655 ; 4.023087903931328E8 ; 8.026517470933269E8 ; 6.620989505532122E10 ; 61612.21999999992
174 ; 4558402.214906654 ; 4.023173372764746E8 ; 8.072091434801412E8 ; 6.6612203845714355E10 ; 61968.35999999992
175 ; 4558770.501807412 ; 4.023258522535043E8 ; 8.117675456950479E8 ; 6.701452118299083E10 ; 62324.49999999992
176 ; 4557218.379219755 ; 4.0233433515038586E8 ; 8.163263161968553E8 ; 6.741684703524433E10 ; 62680.63999999992
177 ; 4559511.761845915 ; 4.0234278579416597E8 ; 8.208835345760751E8 ; 6.7819181370394714E10 ; 63036.77999999992
