CSV File for the Network on Day 15
1 - Minute m 
2 - Power Consumed at minute m 
3 - Power Produced at minute m 
4 - Energy Consumed since the beginning of the day 
5 - Energy Produced since the beginning of the day 
6 - Energy Lost since the beginning of the day 
 
0 ; 3.841189814632663E7 ; 6.319614925401181E8 ; 0.0 ; 0.0 ; 0.0
1 ; 3.8454783933234945E7 ; 6.328499542016985E8 ; 3.841189814632663E7 ; 6.319614925401181E8 ; 0.0
2 ; 3.849518798547562E7 ; 6.355929125699078E8 ; 7.686668207956158E7 ; 1.2648114467418165E9 ; 0.0
3 ; 3.8544335248972625E7 ; 6.401906811673977E8 ; 1.1536187006503719E8 ; 1.9004043593117242E9 ; 0.0
4 ; 3.8598586730999E7 ; 6.466435911358865E8 ; 1.5390620531400982E8 ; 2.540595040479122E9 ; 0.0
5 ; 3.867244400266123E7 ; 6.549519821821537E8 ; 1.925047920450088E8 ; 3.187238631615009E9 ; 0.0
6 ; 3.876174707939862E7 ; 6.651161896390617E8 ; 2.3117723604767004E8 ; 3.8421906137971625E9 ; 0.0
7 ; 3.889002595591585E7 ; 6.771365278382578E8 ; 2.6993898312706864E8 ; 4.507306803436224E9 ; 0.0
8 ; 3.907813314224765E7 ; 6.910132708654683E8 ; 3.088290090829845E8 ; 5.184443331274482E9 ; 0.0
9 ; 3.935693200854997E7 ; 7.067466327700661E8 ; 3.479071422252321E8 ; 5.87545660213995E9 ; 0.0
10 ; 3.979780341135476E7 ; 7.243367500979886E8 ; 3.872640742337821E8 ; 6.582203234910016E9 ; 0.0
11 ; 4.047672973158102E7 ; 7.437836698071033E8 ; 4.270618776451369E8 ; 7.306539985008005E9 ; 0.0
12 ; 4.158287649834587E7 ; 7.650873449395424E8 ; 4.675386073767179E8 ; 8.050323654815108E9 ; 0.0
13 ; 4.264677968392056E7 ; 7.882476389493688E8 ; 5.091214838750638E8 ; 8.81541099975465E9 ; 0.0
14 ; 4.277334572613494E7 ; 8.132643377872099E8 ; 5.517682635589843E8 ; 9.60365863870402E9 ; 0.0
15 ; 4.2818536173277624E7 ; 8.401371673673387E8 ; 5.945416092851192E8 ; 1.041692297649123E10 ; 0.0
16 ; 4.287371313182981E7 ; 8.688658133581088E8 ; 6.373601454583968E8 ; 1.1257060143858568E10 ; 0.0
17 ; 4.2925035977675885E7 ; 8.994499404266571E8 ; 6.802338585902267E8 ; 1.2125925957216677E10 ; 0.0
18 ; 4.2976051130468145E7 ; 9.318892088662043E8 ; 7.231588945679026E8 ; 1.3025375897643333E10 ; 0.0
19 ; 4.302273969484732E7 ; 9.661832875350317E8 ; 7.661349456983707E8 ; 1.3957265106509537E10 ; 0.0
20 ; 4.307160245097636E7 ; 1.0023318629104882E9 ; 8.09157685393218E8 ; 1.4923448394044569E10 ; 0.0
21 ; 4.312030138871093E7 ; 1.0403346446481872E9 ; 8.522292878441944E8 ; 1.5925780256955057E10 ; 0.0
22 ; 4.317372051158932E7 ; 1.0801913683255453E9 ; 8.953495892329054E8 ; 1.6966114901603245E10 ; 0.0
23 ; 4.322446272000842E7 ; 1.1219017961119711E9 ; 9.385233097444947E8 ; 1.804630626992879E10 ; 0.0
24 ; 4.326997462258962E7 ; 1.1654657160368829E9 ; 9.81747772464503E8 ; 1.9168208066040764E10 ; 0.0
25 ; 4.331674908616507E7 ; 1.203011185786117E9 ; 1.0250177470870926E9 ; 2.033367378207765E10 ; 0.0
26 ; 4.337991225998102E7 ; 1.203059326872157E9 ; 1.0683344961732577E9 ; 2.1536684967863766E10 ; 0.0
27 ; 4.342054531472281E7 ; 1.2031086095529664E9 ; 1.1117144084332387E9 ; 2.2739744294735924E10 ; 0.0
28 ; 4.34688520275631E7 ; 1.2031589060837262E9 ; 1.1551349537479615E9 ; 2.394285290428889E10 ; 0.0
29 ; 4.3515424974536836E7 ; 1.2032101043579953E9 ; 1.1986038057755246E9 ; 2.5146011810372616E10 ; 0.0
30 ; 4.356069907987321E7 ; 1.2032621059585533E9 ; 1.2421192307500615E9 ; 2.634922191473061E10 ; 0.0
31 ; 4.3611132974517755E7 ; 1.203314824402656E9 ; 1.2856799298299348E9 ; 2.7552484020689163E10 ; 0.0
32 ; 4.365234990192867E7 ; 1.2033681835860157E9 ; 1.3292910628044527E9 ; 2.875579884509182E10 ; 0.0
33 ; 4.369678669152999E7 ; 1.2034221164174953E9 ; 1.3729434127063813E9 ; 2.9959167028677834E10 ; 0.0
34 ; 4.373559610142183E7 ; 1.2034765636298926E9 ; 1.4166401993979113E9 ; 3.116258914509533E10 ; 0.0
35 ; 4.3777017529007986E7 ; 1.203531472749259E9 ; 1.4603757954993331E9 ; 3.2366065708725224E10 ; 0.0
36 ; 4.381803761691467E7 ; 1.2035867972045267E9 ; 1.504152813028341E9 ; 3.3569597181474483E10 ; 0.0
37 ; 4.385715566032711E7 ; 1.2036424955598416E9 ; 1.5479708506452558E9 ; 3.477318397867901E10 ; 0.0
38 ; 4.389033803824208E7 ; 1.2036985308533316E9 ; 1.591828006305583E9 ; 3.597682647423885E10 ; 0.0
39 ; 4.393251274480207E7 ; 1.2037548700276618E9 ; 1.635718344343825E9 ; 3.7180525005092186E10 ; 0.0
40 ; 4.395704203748921E7 ; 1.2038114834394598E9 ; 1.679650857088627E9 ; 3.838427987511985E10 ; 0.0
41 ; 4.399092009281809E7 ; 1.2038683444363322E9 ; 1.7236078991261163E9 ; 3.958809135855931E10 ; 0.0
42 ; 4.401773058984329E7 ; 1.2039254289917321E9 ; 1.7675988192189343E9 ; 4.079195970299564E10 ; 0.0
43 ; 4.40511541369746E7 ; 1.2039827153893197E9 ; 1.8116165498087776E9 ; 4.199588513198737E10 ; 0.0
44 ; 4.4077005697636805E7 ; 1.2040401839496598E9 ; 1.8556677039457521E9 ; 4.319986784737669E10 ; 0.0
45 ; 4.4096439762142025E7 ; 1.2040978167931542E9 ; 1.899744709643389E9 ; 4.4403908031326355E10 ; 0.0
46 ; 4.412048372012263E7 ; 1.2041555976340232E9 ; 1.943841149405531E9 ; 4.560800584811951E10 ; 0.0
47 ; 4.4138377485339716E7 ; 1.2042135116009126E9 ; 1.9879616331256535E9 ; 4.681216144575353E10 ; 0.0
48 ; 4.415145471035877E7 ; 1.2042715450803747E9 ; 2.0321000106109931E9 ; 4.801637495735445E10 ; 0.0
49 ; 4.417296981130876E7 ; 1.2043296855800252E9 ; 2.076251465321352E9 ; 4.922064650243482E10 ; 0.0
50 ; 4.418357781609163E7 ; 1.2043879216086583E9 ; 2.1204244351326609E9 ; 5.042497618801485E10 ; 0.0
51 ; 4.4193740031051405E7 ; 1.2044462425709996E9 ; 2.1646080129487524E9 ; 5.1629364109623505E10 ; 0.0
52 ; 4.421473991012575E7 ; 1.2045046386751237E9 ; 2.208801752979804E9 ; 5.28338103521945E10 ; 0.0
53 ; 4.422273299078354E7 ; 1.204563100850842E9 ; 2.25301649288993E9 ; 5.403831499086963E10 ; 0.0
54 ; 4.4227629511226326E7 ; 1.2046216206776216E9 ; 2.2972392258807135E9 ; 5.5242878091720474E10 ; 0.0
55 ; 4.424631607530585E7 ; 1.20468019032079E9 ; 2.3414668553919396E9 ; 5.6447499712398094E10 ; 0.0
56 ; 4.425615746732509E7 ; 1.2047388024749682E9 ; 2.3857131714672456E9 ; 5.765217990271889E10 ; 0.0
57 ; 4.426738963314745E7 ; 1.2047974503138137E9 ; 2.429969328934571E9 ; 5.8856918705193855E10 ; 0.0
58 ; 4.427152666507147E7 ; 1.2048561274452858E9 ; 2.474236718567718E9 ; 6.006171615550767E10 ; 0.0
59 ; 4.428398784666373E7 ; 1.2049148278717558E9 ; 2.5185082452327895E9 ; 6.126657228295296E10 ; 0.0
60 ; 4.429084861457455E7 ; 1.204973545954369E9 ; 2.5627922330794535E9 ; 6.2471487110824715E10 ; 0.0
61 ; 4.430276874369559E7 ; 1.2050322763811517E9 ; 2.607083081694028E9 ; 6.367646065677908E10 ; 0.0
62 ; 4.430988799593488E7 ; 1.2050910141384215E9 ; 2.6513858504377236E9 ; 6.488149293316023E10 ; 0.0
63 ; 4.432326112301994E7 ; 1.2051497544851117E9 ; 2.6956957384336586E9 ; 6.608658394729865E10 ; 0.0
64 ; 4.4319776318760484E7 ; 1.2052084929296799E9 ; 2.740018999556679E9 ; 6.729173370178377E10 ; 0.0
65 ; 4.432609480608652E7 ; 1.205267225209303E9 ; 2.784338775875439E9 ; 6.849694219471345E10 ; 0.0
66 ; 4.433515832694494E7 ; 1.2053259472711039E9 ; 2.8286648706815257E9 ; 6.970220941992274E10 ; 0.0
67 ; 4.433768420257564E7 ; 1.2053846552551904E9 ; 2.8730000290084705E9 ; 7.090753536719385E10 ; 0.0
68 ; 4.434172308485056E7 ; 1.2054433454793003E9 ; 2.917337713211046E9 ; 7.211292002244904E10 ; 0.0
69 ; 4.4352838021512985E7 ; 1.2055020144248857E9 ; 2.961679436295897E9 ; 7.331836336792833E10 ; 0.0
70 ; 4.435028416942778E7 ; 1.2055606587244847E9 ; 3.00603227431741E9 ; 7.452386538235321E10 ; 0.0
71 ; 4.43605356933668E7 ; 1.2056192751502416E9 ; 3.050382558486838E9 ; 7.57294260410777E10 ; 0.0
72 ; 4.4362234118407294E7 ; 1.2056778606034608E9 ; 3.094743094180205E9 ; 7.693504531622794E10 ; 0.0
73 ; 4.436693964418409E7 ; 1.205736412105085E9 ; 3.139105328298612E9 ; 7.814072317683139E10 ; 0.0
74 ; 4.4369486084170975E7 ; 1.2057949267870095E9 ; 3.183472267942796E9 ; 7.934645958893648E10 ; 0.0
75 ; 4.437196661529454E7 ; 1.2058534018841462E9 ; 3.227841754026967E9 ; 8.055225451572348E10 ; 0.0
76 ; 4.43685572126983E7 ; 1.2059118347271638E9 ; 3.2722137206422615E9 ; 8.175810791760762E10 ; 0.0
77 ; 4.437512557117307E7 ; 1.2059702227358394E9 ; 3.31658227785496E9 ; 8.296401975233478E10 ; 0.0
78 ; 4.4361089435305536E7 ; 1.2060285634129646E9 ; 3.360957403426133E9 ; 8.416998997507062E10 ; 0.0
79 ; 4.434870905287527E7 ; 1.2060868543387501E9 ; 3.4053184928614388E9 ; 8.537601853848358E10 ; 0.0
80 ; 4.433493885402143E7 ; 1.2061450931656852E9 ; 3.449667201914314E9 ; 8.658210539282233E10 ; 0.0
81 ; 4.4324418125547595E7 ; 1.2062032776138103E9 ; 3.4940021407683353E9 ; 8.7788250485988E10 ; 0.0
82 ; 4.4316546769197516E7 ; 1.206261405466361E9 ; 3.5383265588938828E9 ; 8.899445376360182E10 ; 0.0
83 ; 4.4297832759022295E7 ; 1.2063194745657566E9 ; 3.58264310566308E9 ; 9.020071516906818E10 ; 0.0
84 ; 4.428109671549446E7 ; 1.2063774828098948E9 ; 3.6269409384221025E9 ; 9.140703464363393E10 ; 0.0
85 ; 4.4266399890630126E7 ; 1.2064354281487346E9 ; 3.671222035137597E9 ; 9.261341212644382E10 ; 0.0
86 ; 4.42461389886648E7 ; 1.2064933085811324E9 ; 3.7154884350282273E9 ; 9.381984755459254E10 ; 0.0
87 ; 4.423384396187199E7 ; 1.2065511221519184E9 ; 3.759734574016892E9 ; 9.502634086317368E10 ; 0.0
88 ; 4.422409522515172E7 ; 1.2066088669491873E9 ; 3.803968417978764E9 ; 9.623289198532559E10 ; 0.0
89 ; 4.41966438400585E7 ; 1.206666541101787E9 ; 3.8481925132039156E9 ; 9.743950085227478E10 ; 0.0
90 ; 4.419064386517072E7 ; 1.20672414277699E9 ; 3.892389157043974E9 ; 9.864616739337657E10 ; 0.0
91 ; 4.417013827059385E7 ; 1.2067816701783304E9 ; 3.9365798009091444E9 ; 9.985289153615356E10 ; 0.0
92 ; 4.4147906754017554E7 ; 1.2068391215435944E9 ; 3.980749939179738E9 ; 1.010596732063319E11 ; 0.0
93 ; 4.413002411883734E7 ; 1.2068964951429515E9 ; 4.0248978459337554E9 ; 1.0226651232787549E11 ; 0.0
94 ; 4.410814686917727E7 ; 1.2069537892772157E9 ; 4.0690278700525928E9 ; 1.0347340882301843E11 ; 0.0
95 ; 4.409257255056309E7 ; 1.2070110022762256E9 ; 4.11313601692177E9 ; 1.0468036261229565E11 ; 0.0
96 ; 4.4074896539721735E7 ; 1.2070681324973347E9 ; 4.157228589472333E9 ; 1.0588737361457188E11 ; 0.0
97 ; 4.40542621003468E7 ; 1.207125178324004E9 ; 4.201303486012055E9 ; 1.0709444174706921E11 ; 0.0
98 ; 4.403374862329628E7 ; 1.207182138164487E9 ; 4.245357748112402E9 ; 1.0830156692539322E11 ; 0.0
99 ; 4.4015420249883E7 ; 1.2072390104506035E9 ; 4.289391496735698E9 ; 1.0950874906355771E11 ; 0.0
100 ; 4.3988389098092064E7 ; 1.2072957936365914E9 ; 4.333406916985581E9 ; 1.1071598807400832E11 ; 0.0
101 ; 4.3962459642386526E7 ; 1.2073524861980355E9 ; 4.3773953060836735E9 ; 1.1192328386764491E11 ; 0.0
102 ; 4.39473817959786E7 ; 1.2074090866308622E9 ; 4.42135776572606E9 ; 1.1313063635384294E11 ; 0.0
103 ; 4.392273101333089E7 ; 1.2074655934504018E9 ; 4.465305147522038E9 ; 1.143380454404738E11 ; 0.0
104 ; 4.390391831109387E7 ; 1.207522005190506E9 ; 4.509227878535369E9 ; 1.1554551103392421E11 ; 0.0
105 ; 4.387802082203305E7 ; 1.2075783204027236E9 ; 4.553131796846463E9 ; 1.1675303303911472E11 ; 0.0
106 ; 4.385527039119087E7 ; 1.207634537655526E9 ; 4.597009817668496E9 ; 1.1796061135951744E11 ; 0.0
107 ; 4.382507646477276E7 ; 1.2076906555335822E9 ; 4.640865088059687E9 ; 1.1916824589717297E11 ; 0.0
108 ; 4.3803806718982056E7 ; 1.2077466726370747E9 ; 4.68469016452446E9 ; 1.2037593655270656E11 ; 0.0
109 ; 4.377556459339598E7 ; 1.2078025875810597E9 ; 4.728493971243442E9 ; 1.2158368322534363E11 ; 0.0
110 ; 4.375737438586467E7 ; 1.2078583989948654E9 ; 4.772269535836838E9 ; 1.2279148581292468E11 ; 0.0
111 ; 4.372374729624597E7 ; 1.207914105521525E9 ; 4.816026910222702E9 ; 1.2399934421191956E11 ; 0.0
112 ; 4.36978450999034E7 ; 1.2079697058172445E9 ; 4.859750657518948E9 ; 1.2520725831744109E11 ; 0.0
113 ; 4.367565855852389E7 ; 1.2080251985509007E9 ; 4.903448502618851E9 ; 1.2641522802325833E11 ; 0.0
114 ; 4.3642510519466E7 ; 1.20808058240357E9 ; 4.947124161177375E9 ; 1.2762325322180923E11 ; 0.0
115 ; 4.361525355447269E7 ; 1.2081358560680828E9 ; 4.990766671696841E9 ; 1.288313338042128E11 ; 0.0
116 ; 4.35888882523755E7 ; 1.2081910182486053E9 ; 5.034381925251314E9 ; 1.3003946966028088E11 ; 0.0
117 ; 4.3557966784871385E7 ; 1.2082460676602435E9 ; 5.07797081350369E9 ; 1.312476606785295E11 ; 0.0
118 ; 4.353408255499141E7 ; 1.2083010030286708E9 ; 5.121528780288561E9 ; 1.3245590674618974E11 ; 0.0
119 ; 4.3494348634010196E7 ; 1.208355823089778E9 ; 5.165062862843553E9 ; 1.3366420774921841E11 ; 0.0
120 ; 4.34677559044828E7 ; 1.2084105265893383E9 ; 5.208557211477563E9 ; 1.348725635723082E11 ; 0.0
121 ; 4.344348985823347E7 ; 1.208465112282698E9 ; 5.252024967382046E9 ; 1.3608097409889754E11 ; 0.0
122 ; 4.340599966564645E7 ; 1.2085195789344764E9 ; 5.295468457240279E9 ; 1.3728943921118024E11 ; 0.0
123 ; 4.337477652743209E7 ; 1.2085739253182905E9 ; 5.338874456905926E9 ; 1.3849795879011472E11 ; 0.0
124 ; 4.333580301380968E7 ; 1.208628150216488E9 ; 5.382249233433358E9 ; 1.39706532715433E11 ; 0.0
125 ; 4.331275594047225E7 ; 1.2086822524198987E9 ; 5.425585036447168E9 ; 1.409151608656495E11 ; 0.0
126 ; 4.327793520179795E7 ; 1.208736230727599E9 ; 5.468897792387641E9 ; 1.421238431180694E11 ; 0.0
127 ; 4.325265120473922E7 ; 1.2087900839466872E9 ; 5.512175727589438E9 ; 1.43332579348797E11 ; 0.0
128 ; 4.321305035502909E7 ; 1.208843810892074E9 ; 5.555428378794178E9 ; 1.4454136943274368E11 ; 0.0
129 ; 4.3179250917314485E7 ; 1.2088974103862813E9 ; 5.598641429149207E9 ; 1.4575021324363574E11 ; 0.0
130 ; 4.31391468154446E7 ; 1.208950881259254E9 ; 5.641820680066522E9 ; 1.4695911065402203E11 ; 0.0
131 ; 4.3091115388379894E7 ; 1.2090042223481808E9 ; 5.684959826881967E9 ; 1.4816806153528128E11 ; 0.0
132 ; 4.304079489709589E7 ; 1.209057432497325E9 ; 5.728050942270347E9 ; 1.4937706575762946E11 ; 0.0
133 ; 4.299757228138954E7 ; 1.2091105105578623E9 ; 5.771091737167442E9 ; 1.5058612319012677E11 ; 0.0
134 ; 4.294323398505838E7 ; 1.209163455387732E9 ; 5.814089309448832E9 ; 1.5179523370068463E11 ; 0.0
135 ; 4.289424888739049E7 ; 1.209216265851491E9 ; 5.85703254343389E9 ; 1.5300439715607236E11 ; 0.0
136 ; 4.2847886583033875E7 ; 1.2092689408201766E9 ; 5.8999267923212805E9 ; 1.5421361342192386E11 ; 0.0
137 ; 4.279526159861012E7 ; 1.20932147917118E9 ; 5.942774678904314E9 ; 1.5542288236274405E11 ; 0.0
138 ; 4.274964958937027E7 ; 1.2093738797881217E9 ; 5.985569940502924E9 ; 1.5663220384191522E11 ; 0.0
139 ; 4.269825701270756E7 ; 1.2094261415607367E9 ; 6.028319590092295E9 ; 1.5784157772170334E11 ; 0.0
140 ; 4.2639913393116966E7 ; 1.2094782633847637E9 ; 6.071017847105002E9 ; 1.5905100386326407E11 ; 0.0
141 ; 4.2586844785976365E7 ; 1.2095302441618423E9 ; 6.113657760498119E9 ; 1.6026048212664883E11 ; 0.0
142 ; 4.2542130517053425E7 ; 1.2095820827994137E9 ; 6.156244605284096E9 ; 1.6147001237081067E11 ; 0.0
143 ; 4.248870126985932E7 ; 1.2096337782106256E9 ; 6.198786735801149E9 ; 1.6267959445361008E11 ; 0.0
144 ; 4.243403312770001E7 ; 1.2096853293142474E9 ; 6.241275437071009E9 ; 1.638892282318207E11 ; 0.0
145 ; 4.239956034010835E7 ; 1.2097367350345821E9 ; 6.283709470198709E9 ; 1.6509891356113495E11 ; 0.0
146 ; 4.235603640560601E7 ; 1.2097879943013897E9 ; 6.326109030538816E9 ; 1.6630865029616953E11 ; 0.0
147 ; 4.232447233273917E7 ; 1.2098391060498114E9 ; 6.368465066944423E9 ; 1.6751843829047092E11 ; 0.0
148 ; 4.228408905227384E7 ; 1.209890069220296E9 ; 6.410789539277162E9 ; 1.6872827739652072E11 ; 0.0
149 ; 4.224779986351788E7 ; 1.2099408827585359E9 ; 6.453073628329435E9 ; 1.6993816746574103E11 ; 0.0
150 ; 4.221273507296772E7 ; 1.2099915456154003E9 ; 6.495321428192953E9 ; 1.7114810834849957E11 ; 0.0
151 ; 4.217823860863057E7 ; 1.2100420567468758E9 ; 6.537534163265921E9 ; 1.7235809989411496E11 ; 0.0
152 ; 4.213442015550243E7 ; 1.2100924151140091E9 ; 6.579712401874551E9 ; 1.7356814195086185E11 ; 0.0
153 ; 4.209621683369539E7 ; 1.2101426196828523E9 ; 6.621846822030053E9 ; 1.7477823436597586E11 ; 0.0
154 ; 4.206448129401084E7 ; 1.2101926694244118E9 ; 6.663943038863749E9 ; 1.7598837698565872E11 ; 0.0
155 ; 4.202488935502727E7 ; 1.2102425633146E9 ; 6.70600752015776E9 ; 1.7719856965508313E11 ; 0.0
156 ; 4.1986107770919785E7 ; 1.2102923003341885E9 ; 6.748032409512787E9 ; 1.7840881221839774E11 ; 0.0
157 ; 4.19461785846528E7 ; 1.2103418794687662E9 ; 6.790018517283707E9 ; 1.7961910451873193E11 ; 0.0
158 ; 4.190450380068749E7 ; 1.2103912997086973E9 ; 6.83196469586836E9 ; 1.808294463982007E11 ; 0.0
159 ; 4.186090175806026E7 ; 1.2104405600490828E9 ; 6.873869199669047E9 ; 1.8203983769790942E11 ; 0.0
160 ; 4.182356504255962E7 ; 1.2104896594897242E9 ; 6.915730101427108E9 ; 1.832502782579585E11 ; 0.0
161 ; 4.178593040996587E7 ; 1.210538597035089E9 ; 6.957553666469667E9 ; 1.844607679174482E11 ; 0.0
162 ; 4.174577827972063E7 ; 1.2105873716942778E9 ; 6.999339596879633E9 ; 1.856713065144833E11 ; 0.0
163 ; 4.1704319385605134E7 ; 1.2106359824809957E9 ; 7.041085375159353E9 ; 1.8688189388617758E11 ; 0.0
164 ; 4.1662984136536784E7 ; 1.2106844284135203E9 ; 7.082789694544958E9 ; 1.8809252986865857E11 ; 0.0
165 ; 4.162030081506273E7 ; 1.2107327085146782E9 ; 7.124452678681495E9 ; 1.8930321429707208E11 ; 0.0
166 ; 4.1587389198365755E7 ; 1.2107808218118167E9 ; 7.166072979496557E9 ; 1.9051394700558676E11 ; 0.0
167 ; 4.154032928647838E7 ; 1.210828767336782E9 ; 7.207660368694923E9 ; 1.917247278273986E11 ; 0.0
168 ; 4.1503403943146706E7 ; 1.210876544125896E9 ; 7.249200697981401E9 ; 1.9293555659473538E11 ; 0.0
169 ; 4.146197754679917E7 ; 1.2109241512199354E9 ; 7.290704101924548E9 ; 1.9414643313886127E11 ; 0.0
170 ; 4.14181104309351E7 ; 1.210971587664113E9 ; 7.332166079471347E9 ; 1.953573572900812E11 ; 0.0
171 ; 4.1380852325030215E7 ; 1.2110188525080576E9 ; 7.373584189902282E9 ; 1.9656832887774533E11 ; 0.0
172 ; 4.1337704547435395E7 ; 1.2110659448057992E9 ; 7.414965042227312E9 ; 1.977793477302534E11 ; 0.0
173 ; 4.129765328369125E7 ; 1.2111128636157525E9 ; 7.456302746774748E9 ; 1.9899041367505917E11 ; 0.0
174 ; 4.126819998055187E7 ; 1.2111596080007007E9 ; 7.497600400058439E9 ; 2.0020152653867493E11 ; 0.0
175 ; 4.1248181649791464E7 ; 1.2112061770277846E9 ; 7.538868600038991E9 ; 2.0141268614667563E11 ; 0.0
176 ; 4.122234047054074E7 ; 1.2112525697684877E9 ; 7.580116781688783E9 ; 2.026238923237034E11 ; 0.0
177 ; 4.119837279188409E7 ; 1.211298785298626E9 ; 7.621339122159324E9 ; 2.038351448934719E11 ; 0.0
178 ; 4.1169740788581446E7 ; 1.2113448226983366E9 ; 7.662537494951208E9 ; 2.050464436787705E11 ; 0.0
179 ; 4.114396965386379E7 ; 1.211390681052069E9 ; 7.70370723573979E9 ; 2.0625778850146884E11 ; 0.0
180 ; 4.112147793805189E7 ; 1.211436359448575E9 ; 7.744851205393654E9 ; 2.074691791825209E11 ; 0.0
181 ; 4.109518663501981E7 ; 1.2114818569809012E9 ; 7.785972683331706E9 ; 2.0868061554196948E11 ; 0.0
182 ; 4.107406360090839E7 ; 1.2115271727463822E9 ; 7.827067869966726E9 ; 2.0989209739895038E11 ; 0.0
183 ; 4.104452378196034E7 ; 1.2115723058466334E9 ; 7.868141933567635E9 ; 2.1110362457169675E11 ; 0.0
184 ; 4.1022543244153224E7 ; 1.2116172553875458E9 ; 7.909186457349595E9 ; 2.1231519687754337E11 ; 0.0
185 ; 4.099161879901549E7 ; 1.211662020479281E9 ; 7.950209000593748E9 ; 2.135268141329309E11 ; 0.0
186 ; 4.097159552168082E7 ; 1.2117066002362652E9 ; 7.991200619392763E9 ; 2.147384761534102E11 ; 0.0
187 ; 4.094225476004095E7 ; 1.211750993777188E9 ; 8.032172214914444E9 ; 2.1595018275364645E11 ; 0.0
188 ; 4.092060516235761E7 ; 1.211795200224998E9 ; 8.073114469674485E9 ; 2.1716193374742365E11 ; 0.0
189 ; 4.09003785061207E7 ; 1.2118392187068985E9 ; 8.114035074836843E9 ; 2.1837372894764865E11 ; 0.0
190 ; 4.087288679429242E7 ; 1.2118830483543484E9 ; 8.154935453342963E9 ; 2.1958556816635556E11 ; 0.0
191 ; 4.084406658457279E7 ; 1.2119266883030596E9 ; 8.195808340137256E9 ; 2.207974512147099E11 ; 0.0
192 ; 4.0823235958619475E7 ; 1.2119701376929946E9 ; 8.236652406721828E9 ; 2.2200937790301297E11 ; 0.0
193 ; 4.079570133246133E7 ; 1.2120133956683671E9 ; 8.277475642680448E9 ; 2.2322134804070596E11 ; 0.0
194 ; 4.077133947284435E7 ; 1.2120564613776436E9 ; 8.318271344012909E9 ; 2.2443336143637433E11 ; 0.0
195 ; 4.074590522500993E7 ; 1.2120993339735396E9 ; 8.359042683485753E9 ; 2.2564541789775198E11 ; 0.0
196 ; 4.071953032146093E7 ; 1.2121420126130247E9 ; 8.399788588710763E9 ; 2.2685751723172552E11 ; 0.0
197 ; 4.0694881129552074E7 ; 1.2121844964573212E9 ; 8.440508119032224E9 ; 2.2806965924433856E11 ; 0.0
