CSV File for the Network on Day 150
1 - Minute m 
2 - Power Consumed at minute m 
3 - Power Produced at minute m 
4 - Energy Consumed since the beginning of the day 
5 - Energy Produced since the beginning of the day 
6 - Energy Lost since the beginning of the day 
 
0 ; 2.324455526999657E7 ; 6.352383391379355E8 ; 0.0 ; 0.0 ; 0.0
1 ; 2.3256833876361333E7 ; 6.361492303884375E8 ; 2.324455526999657E7 ; 6.352383391379355E8 ; 0.0
2 ; 2.327338203167413E7 ; 6.389135078276075E8 ; 4.65013891463579E7 ; 1.271387569526373E9 ; 0.0
3 ; 2.331201836552135E7 ; 6.435311871796353E8 ; 6.977477117803204E7 ; 1.9103010773539805E9 ; 0.0
4 ; 2.333875717675267E7 ; 6.500022825284308E8 ; 9.308678954355338E7 ; 2.553832264533616E9 ; 0.0
5 ; 2.3387283668757685E7 ; 6.583268062422242E8 ; 1.1642554672030605E8 ; 3.203834547062047E9 ; 0.0
6 ; 2.345887952291349E7 ; 6.685047689061266E8 ; 1.3981283038906375E8 ; 3.862161353304271E9 ; 0.0
7 ; 2.356077004991131E7 ; 6.805361792635047E8 ; 1.6327170991197723E8 ; 4.530666122210398E9 ; 0.0
8 ; 2.3722042095110588E7 ; 6.944210441669165E8 ; 1.8683247996188855E8 ; 5.211202301473903E9 ; 0.0
9 ; 2.3986969950344335E7 ; 7.101593685392585E8 ; 2.1055452205699915E8 ; 5.90562334564082E9 ; 0.0
10 ; 2.440193639458525E7 ; 7.277511553456293E8 ; 2.3454149200734347E8 ; 6.6157827141800785E9 ; 0.0
11 ; 2.5064354892610688E7 ; 7.471964055762957E8 ; 2.5894342840192872E8 ; 7.343533869525708E9 ; 0.0
12 ; 2.6145560765842166E7 ; 7.684951182409906E8 ; 2.840077832945394E8 ; 8.090730275102004E9 ; 0.0
13 ; 2.719617048324889E7 ; 7.916472903746157E8 ; 3.1015334406038153E8 ; 8.859225393342995E9 ; 0.0
14 ; 2.729959146125763E7 ; 8.166529170542748E8 ; 3.373495145436304E8 ; 9.65087268371761E9 ; 0.0
15 ; 2.7325002549063854E7 ; 8.435119914274093E8 ; 3.6464910600488806E8 ; 1.0467525600771885E10 ; 0.0
16 ; 2.7349658194972947E7 ; 8.72224504750653E8 ; 3.919741085539519E8 ; 1.1311037592199295E10 ; 0.0
17 ; 2.7376332642934218E7 ; 9.027904464388946E8 ; 4.1932376674892485E8 ; 1.2183262096949947E10 ; 0.0
18 ; 2.7404563449543294E7 ; 9.35209804123904E8 ; 4.4670009939185905E8 ; 1.3086052543388842E10 ; 0.0
19 ; 2.743693354809051E7 ; 9.694825637217708E8 ; 4.7410466284140235E8 ; 1.4021262347512745E10 ; 0.0
20 ; 2.7461610115974993E7 ; 1.0056087095083057E9 ; 5.0154159638949287E8 ; 1.4990744911234516E10 ; 0.0
21 ; 2.7494651591610014E7 ; 1.0435882242014842E9 ; 5.290032065054679E8 ; 1.5996353620742823E10 ; 0.0
22 ; 2.7524691933584828E7 ; 1.0834210890499547E9 ; 5.564978580970778E8 ; 1.7039941844944307E10 ; 0.0
23 ; 2.7550301058844727E7 ; 1.125107283926596E9 ; 5.840225500306627E8 ; 1.8123362933994263E10 ; 0.0
24 ; 2.7583414207421027E7 ; 1.1686467874260945E9 ; 6.115728510895073E8 ; 1.924847021792086E10 ; 0.0
25 ; 2.7613161895350557E7 ; 1.2061678223546164E9 ; 6.391562652969284E8 ; 2.0417117005346954E10 ; 0.0
26 ; 2.7635435541592814E7 ; 1.206191652053737E9 ; 6.66769427192279E8 ; 2.1623284827701572E10 ; 0.0
27 ; 2.76666876120901E7 ; 1.2062168676534297E9 ; 6.944048627338718E8 ; 2.282947647975531E10 ; 0.0
28 ; 2.7692243737164013E7 ; 1.206243443656361E9 ; 7.220715503459619E8 ; 2.403569334740874E10 ; 0.0
29 ; 2.772697426402562E7 ; 1.2062713538002534E9 ; 7.49763794083126E8 ; 2.52419367910651E10 ; 0.0
30 ; 2.7755050406565323E7 ; 1.2063005711592162E9 ; 7.774907683471515E8 ; 2.6448208144865356E10 ; 0.0
31 ; 2.7776470807371523E7 ; 1.2063310682428074E9 ; 8.052458187537168E8 ; 2.7654508716024574E10 ; 0.0
32 ; 2.7801614951703504E7 ; 1.206362817092186E9 ; 8.330222895610883E8 ; 2.886083978426738E10 ; 0.0
33 ; 2.7826049447906744E7 ; 1.2063957893728166E9 ; 8.608239045127919E8 ; 3.0067202601359566E10 ; 0.0
34 ; 2.7854053862421628E7 ; 1.2064299564632585E9 ; 8.886499539606986E8 ; 3.1273598390732384E10 ; 0.0
35 ; 2.7871270425660595E7 ; 1.2064652895396621E9 ; 9.165040078231202E8 ; 3.248002834719564E10 ; 0.0
36 ; 2.789087366911637E7 ; 1.2065017596556764E9 ; 9.443752782487808E8 ; 3.3686493636735302E10 ; 0.0
37 ; 2.7910973191266745E7 ; 1.2065393378175411E9 ; 9.722661519178972E8 ; 3.4892995396390976E10 ; 0.0
38 ; 2.7926453936051697E7 ; 1.2065779950542216E9 ; 1.000177125109164E9 ; 3.609953473420852E10 ; 0.0
39 ; 2.7940703282280814E7 ; 1.2066177024824975E9 ; 1.0281035790452157E9 ; 3.730611272926274E10 ; 0.0
40 ; 2.7959976277759954E7 ; 1.2066584313669825E9 ; 1.0560442823274965E9 ; 3.851273043174524E10 ; 0.0
41 ; 2.7965386171921194E7 ; 1.2067001531751075E9 ; 1.0840042586052566E9 ; 3.971938886311222E10 ; 0.0
42 ; 2.7975863239537828E7 ; 1.206742839627142E9 ; 1.1119696447771778E9 ; 4.092608901628733E10 ; 0.0
43 ; 2.798695963304095E7 ; 1.20678646274137E9 ; 1.1399455080167155E9 ; 4.2132831855914474E10 ; 0.0
44 ; 2.7994092907631405E7 ; 1.2068309948745713E9 ; 1.1679324676497564E9 ; 4.3339618318655846E10 ; 0.0
45 ; 2.7999369071449086E7 ; 1.206876408757988E9 ; 1.1959265605573878E9 ; 4.454644931353042E10 ; 0.0
46 ; 2.8002891086942945E7 ; 1.2069226775289717E9 ; 1.2239259296288369E9 ; 4.575332572228841E10 ; 0.0
47 ; 2.800408211200835E7 ; 1.2069697747585342E9 ; 1.2519288207157798E9 ; 4.6960248399817375E10 ; 0.0
48 ; 2.8007078782875698E7 ; 1.2070176744750252E9 ; 1.279932902827788E9 ; 4.816721817457591E10 ; 0.0
49 ; 2.800706833373029E7 ; 1.207066351184177E9 ; 1.307939981610664E9 ; 4.9374235849050934E10 ; 0.0
50 ; 2.799397338608372E7 ; 1.2071157798857543E9 ; 1.335947049944394E9 ; 5.058130220023511E10 ; 0.0
51 ; 2.7994847223625027E7 ; 1.2071659360870533E9 ; 1.3639410233304777E9 ; 5.1788417980120865E10 ; 0.0
52 ; 2.798466186188783E7 ; 1.2072167958134825E9 ; 1.3919358705541027E9 ; 5.299558391620792E10 ; 0.0
53 ; 2.797865449052701E7 ; 1.20726833561647E9 ; 1.4199205324159906E9 ; 5.42028007120214E10 ; 0.0
54 ; 2.7979256605614994E7 ; 1.207320532578915E9 ; 1.4478991869065175E9 ; 5.541006904763787E10 ; 0.0
55 ; 2.7962106375591077E7 ; 1.2073733643184106E9 ; 1.4758784435121324E9 ; 5.661738958021679E10 ; 0.0
56 ; 2.7961233698365074E7 ; 1.2074268089884427E9 ; 1.5038405498877234E9 ; 5.78247629445352E10 ; 0.0
57 ; 2.795523041287126E7 ; 1.2074808452777746E9 ; 1.5318017835860884E9 ; 5.903218975352364E10 ; 0.0
58 ; 2.7948770018078063E7 ; 1.2075354524081974E9 ; 1.5597570139989598E9 ; 6.0239670598801414E10 ; 0.0
59 ; 2.7939747325604152E7 ; 1.2075906101308315E9 ; 1.5877057840170379E9 ; 6.144720605120961E10 ; 0.0
60 ; 2.7934233230800007E7 ; 1.2076462987211447E9 ; 1.615645531342642E9 ; 6.265479666134044E10 ; 0.0
61 ; 2.7921060820789002E7 ; 1.2077024989728441E9 ; 1.643579764573442E9 ; 6.3862442960061584E10 ; 0.0
62 ; 2.7911431091149703E7 ; 1.2077591921907835E9 ; 1.671500825394231E9 ; 6.507014545903443E10 ; 0.0
63 ; 2.7901954631910775E7 ; 1.2078163601830263E9 ; 1.699412256485381E9 ; 6.627790465122521E10 ; 0.0
64 ; 2.7890951852210477E7 ; 1.2078739852521825E9 ; 1.7273142111172917E9 ; 6.748572101140824E10 ; 0.0
65 ; 2.7880645235021554E7 ; 1.2079320501861308E9 ; 1.7552051629695022E9 ; 6.869359499666042E10 ; 0.0
66 ; 2.7878581654611383E7 ; 1.2079905382482388E9 ; 1.7830858082045238E9 ; 6.990152704684656E10 ; 0.0
67 ; 2.7859041446397398E7 ; 1.2080494331671617E9 ; 1.8109643898591352E9 ; 7.11095175850948E10 ; 0.0
68 ; 2.7851684413126133E7 ; 1.208108719126316E9 ; 1.8388234313055325E9 ; 7.231756701826196E10 ; 0.0
69 ; 2.7835987344989344E7 ; 1.2081683807530992E9 ; 1.8666751157186587E9 ; 7.352567573738828E10 ; 0.0
70 ; 2.7826375077193435E7 ; 1.2082284031079242E9 ; 1.894511103063648E9 ; 7.473384411814137E10 ; 0.0
71 ; 2.7815693334150784E7 ; 1.2082887716731336E9 ; 1.9223374781408415E9 ; 7.59420725212493E10 ; 0.0
72 ; 2.7802217580921028E7 ; 1.2083494723418446E9 ; 1.9501531714749923E9 ; 7.715036129292242E10 ; 0.0
73 ; 2.7785838895794142E7 ; 1.208410491406778E9 ; 1.9779553890559132E9 ; 7.835871076526427E10 ; 0.0
74 ; 2.7771191508541357E7 ; 1.208471815549109E9 ; 2.0057412279517074E9 ; 7.956712125667105E10 ; 0.0
75 ; 2.7754249937877003E7 ; 1.2085334318273828E9 ; 2.0335124194602487E9 ; 8.077559307222015E10 ; 0.0
76 ; 2.7747322928664967E7 ; 1.208595327666525E9 ; 2.0612666693981256E9 ; 8.198412650404753E10 ; 0.0
77 ; 2.7727926381730918E7 ; 1.2086574908469753E9 ; 2.0890139923267906E9 ; 8.319272183171405E10 ; 0.0
78 ; 2.770412880773055E7 ; 1.208719909493971E9 ; 2.1167419187085216E9 ; 8.440137932256102E10 ; 0.0
79 ; 2.768072873622786E7 ; 1.2087825720670004E9 ; 2.144446047516252E9 ; 8.5610099232055E10 ; 0.0
80 ; 2.765407241137657E7 ; 1.2088454673494413E9 ; 2.17212677625248E9 ; 8.6818881804122E10 ; 0.0
81 ; 2.7624073061294004E7 ; 1.2089085844384065E9 ; 2.1997808486638565E9 ; 8.802772727147144E10 ; 0.0
82 ; 2.7594500876399502E7 ; 1.208971912734799E9 ; 2.2274049217251506E9 ; 8.923663585590984E10 ; 0.0
83 ; 2.7562845314333957E7 ; 1.2090354419335938E9 ; 2.25499942260155E9 ; 9.044560776864464E10 ; 0.0
84 ; 2.7535161265371747E7 ; 1.2090991620143526E9 ; 2.282562267915884E9 ; 9.165464321057823E10 ; 0.0
85 ; 2.750181750314393E7 ; 1.209163063231973E9 ; 2.310097429181256E9 ; 9.286374237259259E10 ; 0.0
86 ; 2.7471844251962125E7 ; 1.2092271361076827E9 ; 2.3375992466843996E9 ; 9.407290543582457E10 ; 0.0
87 ; 2.74390122866273E7 ; 1.2092913714202774E9 ; 2.365071090936362E9 ; 9.528213257193225E10 ; 0.0
88 ; 2.7404919781552613E7 ; 1.2093557601976018E9 ; 2.392510103222989E9 ; 9.649142394335252E10 ; 0.0
89 ; 2.7377467124055415E7 ; 1.2094202937082813E9 ; 2.419915023004542E9 ; 9.770077970355013E10 ; 0.0
90 ; 2.7346987034069452E7 ; 1.209484963453693E9 ; 2.4472924901285973E9 ; 9.89101999972584E10 ; 0.0
91 ; 2.7318700298771948E7 ; 1.209549761160186E9 ; 2.474639477162667E9 ; 1.001196849607121E11 ; 0.0
92 ; 2.7286706901137963E7 ; 1.2096146787715383E9 ; 2.5019581774614387E9 ; 1.0132923472187228E11 ; 0.0
93 ; 2.725442000370434E7 ; 1.2096797084416528E9 ; 2.5292448843625765E9 ; 1.0253884940064383E11 ; 0.0
94 ; 2.722363148191227E7 ; 1.209744842527489E9 ; 2.556499304366281E9 ; 1.0374852910908548E11 ; 0.0
95 ; 2.7187595388894543E7 ; 1.2098100735822225E9 ; 2.583722935848193E9 ; 1.0495827395161298E11 ; 0.0
96 ; 2.7154838138026215E7 ; 1.2098753943486319E9 ; 2.6109105312370877E9 ; 1.061680840251952E11 ; 0.0
97 ; 2.7117292642032273E7 ; 1.2099407977527063E9 ; 2.638065369375114E9 ; 1.0737795941954384E11 ; 0.0
98 ; 2.7086969960362762E7 ; 1.2100062768974686E9 ; 2.665182662017146E9 ; 1.0858790021729654E11 ; 0.0
99 ; 2.7047232399150476E7 ; 1.2100718250570085E9 ; 2.692269631977509E9 ; 1.09797906494194E11 ; 0.0
100 ; 2.7022657940148722E7 ; 1.2101374356707237E9 ; 2.7193168643766594E9 ; 1.11007978319251E11 ; 0.0
101 ; 2.698403326450658E7 ; 1.2102031023377573E9 ; 2.746339522316808E9 ; 1.1221811575492174E11 ; 0.0
102 ; 2.6944955308103986E7 ; 1.2102688188116322E9 ; 2.773323555581315E9 ; 1.1342831885725949E11 ; 0.0
103 ; 2.6910901101061143E7 ; 1.2103345789950733E9 ; 2.800268510889419E9 ; 1.1463858767607112E11 ; 0.0
104 ; 2.6876204285903405E7 ; 1.210400376935013E9 ; 2.8271794119904804E9 ; 1.158489222550662E11 ; 0.0
105 ; 2.684263479180345E7 ; 1.210466206817775E9 ; 2.854055616276384E9 ; 1.170593226320012E11 ; 0.0
106 ; 2.6800592587526023E7 ; 1.210532062964428E9 ; 2.880898251068187E9 ; 1.1826978883881898E11 ; 0.0
107 ; 2.6767688101352442E7 ; 1.210597939826308E9 ; 2.907698843655713E9 ; 1.1948032090178342E11 ; 0.0
108 ; 2.6727648339401264E7 ; 1.2106638319807034E9 ; 2.9344665317570653E9 ; 1.2069091884160973E11 ; 0.0
109 ; 2.6691382373131055E7 ; 1.21072973412669E9 ; 2.9611941800964665E9 ; 1.2190158267359042E11 ; 0.0
110 ; 2.6650046414074667E7 ; 1.2107956410811238E9 ; 2.987885562469598E9 ; 1.2311231240771712E11 ; 0.0
111 ; 2.6604743397457793E7 ; 1.210861547774775E9 ; 3.0145356088836727E9 ; 1.2432310804879825E11 ; 0.0
112 ; 2.6567155499660484E7 ; 1.2109274492486022E9 ; 3.0411403522811303E9 ; 1.2553396959657303E11 ; 0.0
113 ; 2.6529550723805305E7 ; 1.2109933406501665E9 ; 3.067707507780791E9 ; 1.2674489704582162E11 ; 0.0
114 ; 2.6491088361417152E7 ; 1.21105921723017E9 ; 3.094237058504596E9 ; 1.2795589038647179E11 ; 0.0
115 ; 2.6453286840131707E7 ; 1.2111250743391266E9 ; 3.1207281468660135E9 ; 1.2916694960370195E11 ; 0.0
116 ; 2.64065677653225E7 ; 1.2111909074241514E9 ; 3.1471814337061453E9 ; 1.3037807467804108E11 ; 0.0
117 ; 2.6369753422564253E7 ; 1.211256712025867E9 ; 3.173588001471468E9 ; 1.3158926558546523E11 ; 0.0
118 ; 2.6332915300083127E7 ; 1.2113224837754238E9 ; 3.199957754894032E9 ; 1.3280052229749109E11 ; 0.0
119 ; 2.6295769691905003E7 ; 1.2113882183916302E9 ; 3.226290670194115E9 ; 1.3401184478126651E11 ; 0.0
120 ; 2.624906997613391E7 ; 1.211453911678185E9 ; 3.25258643988602E9 ; 1.3522323299965814E11 ; 0.0
121 ; 2.6210096788069937E7 ; 1.2115195595210133E9 ; 3.278835509862154E9 ; 1.3643468691133633E11 ; 0.0
122 ; 2.616182295094049E7 ; 1.2115851578856983E9 ; 3.3050456066502237E9 ; 1.3764620647085736E11 ; 0.0
123 ; 2.6118347977991395E7 ; 1.2116507028150082E9 ; 3.3312074296011643E9 ; 1.3885779162874307E11 ; 0.0
124 ; 2.607625019669532E7 ; 1.2117161904265096E9 ; 3.357325777579156E9 ; 1.4006944233155807E11 ; 0.0
125 ; 2.6034787992039397E7 ; 1.2117816169102738E9 ; 3.3834020277758512E9 ; 1.412811585219846E11 ; 0.0
126 ; 2.5991730419575352E7 ; 1.2118469785266595E9 ; 3.4094368157678905E9 ; 1.4249294013889487E11 ; 0.0
127 ; 2.5941962384596393E7 ; 1.2119122716041825E9 ; 3.4354285461874657E9 ; 1.4370478711742154E11 ; 0.0
128 ; 2.5902824278113887E7 ; 1.211977492537457E9 ; 3.461370508572062E9 ; 1.4491669938902573E11 ; 0.0
129 ; 2.5862837660850056E7 ; 1.212042637785216E9 ; 3.487273332850176E9 ; 1.4612867688156317E11 ; 0.0
130 ; 2.580317360284991E7 ; 1.2121077038684E9 ; 3.513136170511026E9 ; 1.473407195193484E11 ; 0.0
131 ; 2.5745224808643267E7 ; 1.212172687368317E9 ; 3.538939344113876E9 ; 1.485528272232168E11 ; 0.0
132 ; 2.5688629318007186E7 ; 1.212237584924865E9 ; 3.564684568922519E9 ; 1.497649999105851E11 ; 0.0
133 ; 2.5626656374859713E7 ; 1.2123023932348247E9 ; 3.590373198240526E9 ; 1.5097723749550998E11 ; 0.0
134 ; 2.5570003534109455E7 ; 1.2123671090502067E9 ; 3.615999854615386E9 ; 1.521895398887448E11 ; 0.0
135 ; 2.5511344415159866E7 ; 1.2124317291766617E9 ; 3.6415698581494956E9 ; 1.53401906997795E11 ; 0.0
136 ; 2.5451635205045268E7 ; 1.2124962504719474E9 ; 3.6670812025646553E9 ; 1.5461433872697168E11 ; 0.0
137 ; 2.5388329766399436E7 ; 1.2125606698444474E9 ; 3.6925328377697005E9 ; 1.5582683497744363E11 ; 0.0
138 ; 2.532713198589301E7 ; 1.2126249842517457E9 ; 3.7179211675361E9 ; 1.570393956472881E11 ; 0.0
139 ; 2.527166138864372E7 ; 1.2126891906992507E9 ; 3.7432482995219927E9 ; 1.5825202063153983E11 ; 0.0
140 ; 2.5208271959776044E7 ; 1.2127532862388663E9 ; 3.7685199609106364E9 ; 1.5946470982223907E11 ; 0.0
141 ; 2.515028077379622E7 ; 1.2128172679677124E9 ; 3.7937282328704123E9 ; 1.6067746310847794E11 ; 0.0
142 ; 2.5086449953608878E7 ; 1.2128811330268898E9 ; 3.8188785136442084E9 ; 1.6189028037644565E11 ; 0.0
143 ; 2.5023342447780196E7 ; 1.2129448786002858E9 ; 3.8439649635978174E9 ; 1.6310316150947253E11 ; 0.0
144 ; 2.4959124171819355E7 ; 1.213008501913426E9 ; 3.8689883060455976E9 ; 1.643161063880728E11 ; 0.0
145 ; 2.4916744301175714E7 ; 1.2130720002323625E9 ; 3.893947430217417E9 ; 1.6552911488998624E11 ; 0.0
146 ; 2.4867472000714324E7 ; 1.2131353708626032E9 ; 3.9188641745185924E9 ; 1.667421868902186E11 ; 0.0
147 ; 2.4821828779844135E7 ; 1.2131986111480763E9 ; 3.9437316465193067E9 ; 1.679553222610812E11 ; 0.0
148 ; 2.4777962216542106E7 ; 1.2132617184701326E9 ; 3.968553475299151E9 ; 1.6916852087222928E11 ; 0.0
149 ; 2.472837906753289E7 ; 1.2133246902465813E9 ; 3.993331437515693E9 ; 1.703817825906994E11 ; 0.0
150 ; 2.4675612199711695E7 ; 1.2133875239307585E9 ; 4.018059816583226E9 ; 1.7159510728094598E11 ; 0.0
151 ; 2.4637185078885194E7 ; 1.2134502170106287E9 ; 4.042735428782938E9 ; 1.7280849480487674E11 ; 0.0
152 ; 2.4589881285055675E7 ; 1.2135127670079165E9 ; 4.067372613861823E9 ; 1.7402194502188736E11 ; 0.0
153 ; 2.4544562867574032E7 ; 1.213575171477269E9 ; 4.0919624951468787E9 ; 1.7523545778889526E11 ; 0.0
154 ; 2.449413524894811E7 ; 1.213637428005444E9 ; 4.116507058014453E9 ; 1.7644903296037253E11 ; 0.0
155 ; 2.4451397946519047E7 ; 1.2136995342105296E9 ; 4.141001193263401E9 ; 1.7766267038837796E11 ; 0.0
156 ; 2.440162190809198E7 ; 1.213761487741187E9 ; 4.16545259120992E9 ; 1.788763699225885E11 ; 0.0
157 ; 2.4352237117061716E7 ; 1.2138232862759213E9 ; 4.189854213118012E9 ; 1.8009013141032968E11 ; 0.0
158 ; 2.4303370212863356E7 ; 1.2138849275223744E9 ; 4.2142064502350736E9 ; 1.813039546966056E11 ; 0.0
159 ; 2.426222923073311E7 ; 1.2139464092166438E9 ; 4.238509820447937E9 ; 1.8251783962412796E11 ; 0.0
160 ; 2.4207258186380602E7 ; 1.2140077291226237E9 ; 4.26277204967867E9 ; 1.837317860333446E11 ; 0.0
161 ; 2.4164989327193346E7 ; 1.2140688850313668E9 ; 4.2869793078650503E9 ; 1.8494579376246722E11 ; 0.0
162 ; 2.4118749387544863E7 ; 1.2141298747604692E9 ; 4.311144297192244E9 ; 1.861598626474986E11 ; 0.0
163 ; 2.4072502231619827E7 ; 1.2141906961534748E9 ; 4.335263046579788E9 ; 1.8737399252225906E11 ; 0.0
164 ; 2.402262607655695E7 ; 1.2142513470792997E9 ; 4.359335548811408E9 ; 1.8858818321841254E11 ; 0.0
165 ; 2.397776014367651E7 ; 1.2143118254316742E9 ; 4.383358174887965E9 ; 1.8980243456549182E11 ; 0.0
166 ; 2.392416755868105E7 ; 1.214372129128607E9 ; 4.407335935031642E9 ; 1.910167463909235E11 ; 0.0
167 ; 2.3880387172103845E7 ; 1.2144322561118612E9 ; 4.431260102590323E9 ; 1.922311185200521E11 ; 0.0
168 ; 2.382900016381521E7 ; 1.2144922043464534E9 ; 4.455140489762427E9 ; 1.9344555077616394E11 ; 0.0
169 ; 2.3783854903750394E7 ; 1.2145519718201652E9 ; 4.478969489926243E9 ; 1.946600429805104E11 ; 0.0
170 ; 2.3733364656374946E7 ; 1.2146115565430717E9 ; 4.502753344829993E9 ; 1.9587459495233057E11 ; 0.0
171 ; 2.369045868845641E7 ; 1.214670956547087E9 ; 4.526486709486368E9 ; 1.9708920650887363E11 ; 0.0
172 ; 2.3643888522898648E7 ; 1.2147301698855207E9 ; 4.550177168174825E9 ; 1.9830387746542072E11 ; 0.0
173 ; 2.3591627501757998E7 ; 1.2147891946326528E9 ; 4.573821056697723E9 ; 1.9951860763530624E11 ; 0.0
174 ; 2.3549886749036644E7 ; 1.2148480288833199E9 ; 4.597412684199481E9 ; 2.007333968299389E11 ; 0.0
175 ; 2.3509234613423895E7 ; 1.214906670752515E9 ; 4.620962570948518E9 ; 2.0194824485882224E11 ; 0.0
176 ; 2.3470279863450557E7 ; 1.214965118375001E9 ; 4.644471805561942E9 ; 2.0316315152957474E11 ; 0.0
177 ; 2.3427202891978297E7 ; 1.215023369904935E9 ; 4.667942085425393E9 ; 2.0437811664794974E11 ; 0.0
178 ; 2.339259385154521E7 ; 1.2150814235155067E9 ; 4.691369288317371E9 ; 2.0559314001785468E11 ; 0.0
179 ; 2.335152333625669E7 ; 1.2151392773985872E9 ; 4.714761882168917E9 ; 2.0680822144137018E11 ; 0.0
180 ; 2.3320351126847047E7 ; 1.215196929764388E9 ; 4.738113405505174E9 ; 2.0802336071876877E11 ; 0.0
181 ; 2.3274430115584496E7 ; 1.2152543788411322E9 ; 4.761433756632021E9 ; 2.0923855764853314E11 ; 0.0
182 ; 2.3232839202104148E7 ; 1.2153116228747354E9 ; 4.784708186747605E9 ; 2.1045381202737427E11 ; 0.0
183 ; 2.3193075900402155E7 ; 1.2153686601284978E9 ; 4.80794102594971E9 ; 2.11669123650249E11 ; 0.0
184 ; 2.315029433496786E7 ; 1.2154254888828042E9 ; 4.831134101850112E9 ; 2.128844923103775E11 ; 0.0
185 ; 2.3112834899797026E7 ; 1.2154821074348342E9 ; 4.85428439618508E9 ; 2.140999177992603E11 ; 0.0
186 ; 2.3071920311192024E7 ; 1.2155385140982826E9 ; 4.877397231084877E9 ; 2.1531539990669516E11 ; 0.0
187 ; 2.3030491005447574E7 ; 1.2155947072030857E9 ; 4.900469151396069E9 ; 2.1653093842079346E11 ; 0.0
188 ; 2.2995283741852436E7 ; 1.21565068509516E9 ; 4.923499642401516E9 ; 2.1774653312799655E11 ; 0.0
189 ; 2.2958068635498464E7 ; 1.2157064461361454E9 ; 4.946494926143369E9 ; 2.189621838130917E11 ; 0.0
190 ; 2.291388161892669E7 ; 1.2157619887031589E9 ; 4.969452994778867E9 ; 2.2017789025922784E11 ; 0.0
191 ; 2.287497776799517E7 ; 1.2158173111885536E9 ; 4.992366876397794E9 ; 2.21393652247931E11 ; 0.0
192 ; 2.283227355747687E7 ; 1.2158724119996886E9 ; 5.015241854165789E9 ; 2.2260946955911957E11 ; 0.0
193 ; 2.279408333559906E7 ; 1.2159272895587015E9 ; 5.038074127723266E9 ; 2.2382534197111926E11 ; 0.0
194 ; 2.27532382408474E7 ; 1.2159819423022926E9 ; 5.060868211058865E9 ; 2.2504126926067798E11 ; 0.0
195 ; 2.2714210758153535E7 ; 1.2160363686815114E9 ; 5.083621449299712E9 ; 2.262572512029803E11 ; 0.0
