CSV File for the Network on Day 171
1 - Minute m 
2 - Power Consumed at minute m 
3 - Power Produced at minute m 
4 - Energy Consumed since the beginning of the day 
5 - Energy Produced since the beginning of the day 
6 - Energy Lost since the beginning of the day 
 
0 ; 1.2498574470586553E7 ; 6.34829435763925E8 ; 0.0 ; 0.0 ; 0.0
1 ; 1.252915044925155E7 ; 6.357401105905058E8 ; 1.2498574470586553E7 ; 6.34829435763925E8 ; 0.0
2 ; 1.2566886276642581E7 ; 6.385041880668126E8 ; 2.50277249198381E7 ; 1.2705695463544307E9 ; 0.0
3 ; 1.2595908281183966E7 ; 6.431216859257376E8 ; 3.7594611196480684E7 ; 1.9090737344212432E9 ; 0.0
4 ; 1.265185052065962E7 ; 6.49592620079698E8 ; 5.019051947766465E7 ; 2.552195420346981E9 ; 0.0
5 ; 1.2712650050905209E7 ; 6.5791700452555E8 ; 6.284236999832427E7 ; 3.201788040426679E9 ; 0.0
6 ; 1.2798334983388696E7 ; 6.680948512592123E8 ; 7.555502004922947E7 ; 3.859705044952229E9 ; 0.0
7 ; 1.2918126258839244E7 ; 6.801261702011956E8 ; 8.835335503261817E7 ; 4.527799896211441E9 ; 0.0
8 ; 1.3093905167720247E7 ; 6.940109691341057E8 ; 1.0127148129145741E8 ; 5.207926066412637E9 ; 0.0
9 ; 1.3369759551782154E7 ; 7.097492536530368E8 ; 1.1436538645917766E8 ; 5.901937035546742E9 ; 0.0
10 ; 1.3799253083929937E7 ; 7.273410271295917E8 ; 1.277351460109598E8 ; 6.6116862891997795E9 ; 0.0
11 ; 1.4482051964253746E7 ; 7.467862906900741E8 ; 1.4153439909488973E8 ; 7.339027316329371E9 ; 0.0
12 ; 1.558158284957692E7 ; 7.680850432081798E8 ; 1.5601645105914348E8 ; 8.085813607019445E9 ; 0.0
13 ; 1.6637828041403115E7 ; 7.912372813123066E8 ; 1.715980339087204E8 ; 8.853898650227625E9 ; 0.0
14 ; 1.6758881882764481E7 ; 8.162429994073606E8 ; 1.8823586195012352E8 ; 9.645135931539932E9 ; 0.0
15 ; 1.6797127191435553E7 ; 8.431021897107351E8 ; 2.04994743832888E8 ; 1.0461378930947292E10 ; 0.0
16 ; 1.6842583424630072E7 ; 8.7181484230192E8 ; 2.2179187102432355E8 ; 1.1304481120658028E10 ; 0.0
17 ; 1.688193654564245E7 ; 9.02380945184997E8 ; 2.3863445444895363E8 ; 1.2176295962959948E10 ; 0.0
18 ; 1.692899143734011E7 ; 9.348004843631089E8 ; 2.5551639099459606E8 ; 1.3078676908144945E10 ; 0.0
19 ; 1.6977214994957745E7 ; 9.690734439238391E8 ; 2.7244538243193614E8 ; 1.4013477392508055E10 ; 0.0
20 ; 1.7022106718119442E7 ; 1.0051998061342951E9 ; 2.894225974268939E8 ; 1.4982550836431894E10 ; 0.0
21 ; 1.7062184717929997E7 ; 1.04317955154462E9 ; 3.0644470414501333E8 ; 1.5987750642566189E10 ; 0.0
22 ; 1.7115555113609828E7 ; 1.0830126590985622E9 ; 3.2350688886294335E8 ; 1.703093019411081E10 ; 0.0
23 ; 1.71519163566139E7 ; 1.124699106249719E9 ; 3.406224439765532E8 ; 1.8113942853209373E10 ; 0.0
24 ; 1.7184928334565457E7 ; 1.1682388690820463E9 ; 3.577743603331671E8 ; 1.923864195945909E10 ; 0.0
25 ; 1.7238510849511422E7 ; 1.2057601678223648E9 ; 3.7495928866773254E8 ; 2.0406880828541138E10 ; 0.0
26 ; 1.7282370816414114E7 ; 1.2057842631866918E9 ; 3.92197799517244E8 ; 2.1612640996363503E10 ; 0.0
27 ; 1.7326223458726976E7 ; 1.2058097436549118E9 ; 4.094801703336581E8 ; 2.2818425259550194E10 ; 0.0
28 ; 1.737337877423506E7 ; 1.2058365810757704E9 ; 4.268063937923851E8 ; 2.4024235003205105E10 ; 0.0
29 ; 1.7408731637298625E7 ; 1.2058647465487344E9 ; 4.441797725666202E8 ; 2.5230071584280876E10 ; 0.0
30 ; 1.745260338471264E7 ; 1.2058942105434418E9 ; 4.615885042039188E8 ; 2.643593633082961E10 ; 0.0
31 ; 1.7494061796601407E7 ; 1.20592494301536E9 ; 4.7904110758863145E8 ; 2.764183054137305E10 ; 0.0
32 ; 1.7532930094117664E7 ; 1.2059569135169237E9 ; 4.9653516938523287E8 ; 2.8847755484388412E10 ; 0.0
33 ; 1.7576827685779072E7 ; 1.2059900913035424E9 ; 5.140680994793505E8 ; 3.0053712397905334E10 ; 0.0
34 ; 1.7611919430701487E7 ; 1.2060244454339952E9 ; 5.316449271651296E8 ; 3.1259702489208878E10 ; 0.0
35 ; 1.7646901103765644E7 ; 1.2060599448648329E9 ; 5.49256846595831E8 ; 3.246572693464287E10 ; 0.0
36 ; 1.7690149743810773E7 ; 1.206096558538528E9 ; 5.669037476995966E8 ; 3.3671786879507706E10 ; 0.0
37 ; 1.7715168684162788E7 ; 1.2061342554652073E9 ; 5.845938974434074E8 ; 3.4877883438046234E10 ; 0.0
38 ; 1.774261109074564E7 ; 1.2061730047978945E9 ; 6.023090661275702E8 ; 3.6084017693511444E10 ; 0.0
39 ; 1.778282623189833E7 ; 1.2062127759012697E9 ; 6.200516772183158E8 ; 3.729019069830934E10 ; 0.0
40 ; 1.7805301448065665E7 ; 1.206253538414029E9 ; 6.378345034502141E8 ; 3.849640347421061E10 ; 0.0
41 ; 1.7835862743887547E7 ; 1.2062952623049836E9 ; 6.556398048982798E8 ; 3.970265701262464E10 ; 0.0
42 ; 1.7864309719657887E7 ; 1.2063379179230914E9 ; 6.734756676421673E8 ; 4.090895227492963E10 ; 0.0
43 ; 1.7895666084261328E7 ; 1.2063814760416548E9 ; 6.913399773618252E8 ; 4.2115290192852715E10 ; 0.0
44 ; 1.791042307660506E7 ; 1.2064259078969555E9 ; 7.092356434460865E8 ; 4.332167166889437E10 ; 0.0
45 ; 1.7934727080344494E7 ; 1.2064711852216167E9 ; 7.271460665226916E8 ; 4.452809757679133E10 ; 0.0
46 ; 1.7958663270382266E7 ; 1.206517280273005E9 ; 7.45080793603036E8 ; 4.573456876201295E10 ; 0.0
47 ; 1.7978161385896895E7 ; 1.2065641658569918E9 ; 7.630394568734183E8 ; 4.694108604228595E10 ; 0.0
48 ; 1.7979538179427158E7 ; 1.2066118153474026E9 ; 7.810176182593153E8 ; 4.8147650208142944E10 ; 0.0
49 ; 1.7994447146452554E7 ; 1.206660202701483E9 ; 7.989971564387424E8 ; 4.935426202349035E10 ; 0.0
50 ; 1.8007426333296694E7 ; 1.206709302471703E9 ; 8.16991603585195E8 ; 5.056092222619183E10 ; 0.0
51 ; 1.8017584606493466E7 ; 1.2067590898142176E9 ; 8.349990299184916E8 ; 5.1767631528663536E10 ; 0.0
52 ; 1.8028123470753442E7 ; 1.2068095404942894E9 ; 8.530166145249851E8 ; 5.297439061847775E10 ; 0.0
53 ; 1.8034755144042913E7 ; 1.2068606308889694E9 ; 8.710447379957385E8 ; 5.4181200158972046E10 ; 0.0
54 ; 1.8053226057894394E7 ; 1.206912337987315E9 ; 8.890794931397815E8 ; 5.5388060789861015E10 ; 0.0
55 ; 1.806107081952877E7 ; 1.2069646393884108E9 ; 9.071327191976758E8 ; 5.659497312784833E10 ; 0.0
56 ; 1.8062835859163716E7 ; 1.207017513297444E9 ; 9.251937900172046E8 ; 5.780193776723674E10 ; 0.0
57 ; 1.807053781671301E7 ; 1.2070709385200648E9 ; 9.432566258763684E8 ; 5.900895528053419E10 ; 0.0
58 ; 1.8080077575555272E7 ; 1.2071248944552498E9 ; 9.613271636930814E8 ; 6.021602621905425E10 ; 0.0
59 ; 1.808575566907885E7 ; 1.2071793610868733E9 ; 9.794072412686367E8 ; 6.142315111350951E10 ; 0.0
60 ; 1.80946149113795E7 ; 1.2072343189741645E9 ; 9.974929969377155E8 ; 6.263033047459638E10 ; 0.0
61 ; 1.8106832907439686E7 ; 1.207289749241224E9 ; 1.015587611849095E9 ; 6.383756479357055E10 ; 0.0
62 ; 1.8114898725980926E7 ; 1.2073456335657558E9 ; 1.0336944447565347E9 ; 6.5044854542811775E10 ; 0.0
63 ; 1.8116619829181388E7 ; 1.2074019541671498E9 ; 1.0518093434825156E9 ; 6.625220017637753E10 ; 0.0
64 ; 1.8121891767468385E7 ; 1.2074586937940478E9 ; 1.069925963311697E9 ; 6.7459602130544685E10 ; 0.0
65 ; 1.8128218004380126E7 ; 1.207515835711501E9 ; 1.0880478550791655E9 ; 6.866706082433873E10 ; 0.0
66 ; 1.813080912371572E7 ; 1.2075733636878266E9 ; 1.1061760730835457E9 ; 6.987457666005023E10 ; 0.0
67 ; 1.8139511593354948E7 ; 1.2076312619812522E9 ; 1.1243068822072613E9 ; 7.108215002373805E10 ; 0.0
68 ; 1.814414733547086E7 ; 1.2076895153264294E9 ; 1.1424463938006163E9 ; 7.22897812857193E10 ; 0.0
69 ; 1.8148029805975135E7 ; 1.2077481089208875E9 ; 1.1605905411360872E9 ; 7.349747080104573E10 ; 0.0
70 ; 1.8150124735437885E7 ; 1.207807028411492E9 ; 1.1787385709420624E9 ; 7.470521890996661E10 ; 0.0
71 ; 1.815595507322505E7 ; 1.2078662598809621E9 ; 1.1968886956775002E9 ; 7.591302593837811E10 ; 0.0
72 ; 1.8164773859108657E7 ; 1.2079257898344936E9 ; 1.2150446507507253E9 ; 7.712089219825908E10 ; 0.0
73 ; 1.816223144413657E7 ; 1.20798560518653E9 ; 1.233209424609834E9 ; 7.832881798809357E10 ; 0.0
74 ; 1.8168754432520017E7 ; 1.2080456932477188E9 ; 1.2513716560539706E9 ; 7.953680359328009E10 ; 0.0
75 ; 1.816894412318586E7 ; 1.2081060417120762E9 ; 1.2695404104864905E9 ; 8.07448492865278E10 ; 0.0
76 ; 1.817182540313536E7 ; 1.2081666386443934E9 ; 1.2877093546096764E9 ; 8.195295532823988E10 ; 0.0
77 ; 1.81712042098154E7 ; 1.2082274724678998E9 ; 1.3058811800128117E9 ; 8.316112196688428E10 ; 0.0
78 ; 1.815513407005893E7 ; 1.2082885319522023E9 ; 1.3240523842226272E9 ; 8.436934943935217E10 ; 0.0
79 ; 1.8147778035326343E7 ; 1.2083498062015119E9 ; 1.342207518292686E9 ; 8.557763797130438E10 ; 0.0
80 ; 1.8137584589480206E7 ; 1.208411284643171E9 ; 1.3603552963280122E9 ; 8.678598777750589E10 ; 0.0
81 ; 1.8126032735769685E7 ; 1.2084729570164862E9 ; 1.3784928809174924E9 ; 8.799439906214906E10 ; 0.0
82 ; 1.8116086230093844E7 ; 1.208534813361872E9 ; 1.3966189136532621E9 ; 8.920287201916554E10 ; 0.0
83 ; 1.8102316721157357E7 ; 1.2085968440103126E9 ; 1.414734999883356E9 ; 9.041140683252742E10 ; 0.0
84 ; 1.80790377862542E7 ; 1.2086590395731356E9 ; 1.4328373166045134E9 ; 9.162000367653773E10 ; 0.0
85 ; 1.8065169894833777E7 ; 1.2087213909321055E9 ; 1.4509163543907676E9 ; 9.282866271611087E10 ; 0.0
86 ; 1.8062671404793806E7 ; 1.2087838892298284E9 ; 1.4689815242856014E9 ; 9.403738410704297E10 ; 0.0
87 ; 1.8038920317231603E7 ; 1.2088465258604703E9 ; 1.487044195690395E9 ; 9.52461679962728E10 ; 0.0
88 ; 1.803207187673616E7 ; 1.2089092924607825E9 ; 1.5050831160076268E9 ; 9.645501452213327E10 ; 0.0
89 ; 1.8013044424309086E7 ; 1.2089721809014292E9 ; 1.523115187884363E9 ; 9.766392381459406E10 ; 0.0
90 ; 1.8004989116204783E7 ; 1.2090351832786133E9 ; 1.541128232308672E9 ; 9.887289599549548E10 ; 0.0
91 ; 1.798356993632486E7 ; 1.2090982919059947E9 ; 1.5591332214248767E9 ; 1.000819311787741E11 ; 0.0
92 ; 1.796823272770805E7 ; 1.2091614993068929E9 ; 1.5771167913612015E9 ; 1.0129102947068008E11 ; 0.0
93 ; 1.795201560457116E7 ; 1.2092247982067678E9 ; 1.5950850240889096E9 ; 1.0250019096998698E11 ; 0.0
94 ; 1.7939733232280474E7 ; 1.2092881815259724E9 ; 1.6130370396934807E9 ; 1.0370941576819376E11 ; 0.0
95 ; 1.7922208644242503E7 ; 1.2093516423727708E9 ; 1.6309767729257612E9 ; 1.0491870394971973E11 ; 0.0
96 ; 1.790717453181413E7 ; 1.20941517403661E9 ; 1.6488989815700037E9 ; 1.061280555920925E11 ; 0.0
97 ; 1.7886059205738578E7 ; 1.209478769981643E9 ; 1.6668061561018178E9 ; 1.073374707661291E11 ; 0.0
98 ; 1.7868444577943757E7 ; 1.2095424238404942E9 ; 1.6846922153075564E9 ; 1.0854694953611075E11 ; 0.0
99 ; 1.78506016460957E7 ; 1.2096061294082546E9 ; 1.7025606598855002E9 ; 1.0975649195995125E11 ; 0.0
100 ; 1.7832697308475412E7 ; 1.2096698806367078E9 ; 1.720411261531596E9 ; 1.109660980893595E11 ; 0.0
101 ; 1.7816137355399862E7 ; 1.2097336716287715E9 ; 1.7382439588400714E9 ; 1.121757679699962E11 ; 0.0
102 ; 1.7793517838366825E7 ; 1.2097974966331532E9 ; 1.7560600961954713E9 ; 1.1338550164162497E11 ; 0.0
103 ; 1.7776534149970297E7 ; 1.2098613500392058E9 ; 1.773853614033838E9 ; 1.1459529913825812E11 ; 0.0
104 ; 1.7761690035201456E7 ; 1.2099252263719852E9 ; 1.7916301481838083E9 ; 1.1580516048829732E11 ; 0.0
105 ; 1.7738925990380626E7 ; 1.209989120287493E9 ; 1.8093918382190099E9 ; 1.170150857146693E11 ; 0.0
106 ; 1.7715814130994458E7 ; 1.2100530265681043E9 ; 1.8271307642093904E9 ; 1.1822507483495679E11 ; 0.0
107 ; 1.76949242586374E7 ; 1.2101169401181715E9 ; 1.844846578340385E9 ; 1.1943512786152489E11 ; 0.0
108 ; 1.767488539751568E7 ; 1.210180855959797E9 ; 1.8625415025990224E9 ; 1.2064524480164305E11 ; 0.0
109 ; 1.7657840837654714E7 ; 1.2102447692287703E9 ; 1.8802163879965382E9 ; 1.2185542565760284E11 ; 0.0
110 ; 1.763358137317274E7 ; 1.2103086751706593E9 ; 1.897874228834193E9 ; 1.2306567042683162E11 ; 0.0
111 ; 1.7613576571798693E7 ; 1.2103725691370578E9 ; 1.9155078102073658E9 ; 1.2427597910200227E11 ; 0.0
112 ; 1.758990617090435E7 ; 1.2104364465819712E9 ; 1.9331213867791646E9 ; 1.2548635167113933E11 ; 0.0
113 ; 1.7561053713807505E7 ; 1.2105003030583487E9 ; 1.950711292950069E9 ; 1.266967881177213E11 ; 0.0
114 ; 1.7544494358656973E7 ; 1.2105641342147436E9 ; 1.9682723466638765E9 ; 1.2790728842077965E11 ; 0.0
115 ; 1.7521868036748625E7 ; 1.210627935792109E9 ; 1.9858168410225334E9 ; 1.2911785255499438E11 ; 0.0
116 ; 1.7494024326361362E7 ; 1.2106917036207087E9 ; 2.003338709059282E9 ; 1.303284804907865E11 ; 0.0
117 ; 1.746697934252864E7 ; 1.2107554336171565E9 ; 2.0208327333856435E9 ; 1.3153917219440721E11 ; 0.0
118 ; 1.7449278322606456E7 ; 1.2108191217815626E9 ; 2.038299712728172E9 ; 1.3274992762802437E11 ; 0.0
119 ; 1.742642604743093E7 ; 1.2108827641947925E9 ; 2.0557489910507786E9 ; 1.3396074674980592E11 ; 0.0
120 ; 1.7398780091387235E7 ; 1.2109463570158312E9 ; 2.0731754170982096E9 ; 1.3517162951400072E11 ; 0.0
121 ; 1.7380275860247783E7 ; 1.2110098964792485E9 ; 2.090574197189597E9 ; 1.3638257587101656E11 ; 0.0
122 ; 1.7356359700155836E7 ; 1.21107337889276E9 ; 2.1079544730498447E9 ; 1.3759358576749582E11 ; 0.0
123 ; 1.7323498773157038E7 ; 1.2111368006348834E9 ; 2.1253108327500005E9 ; 1.3880465914638858E11 ; 0.0
124 ; 1.7295016404261053E7 ; 1.2112001581526816E9 ; 2.1426343315231576E9 ; 1.4001579594702347E11 ; 0.0
125 ; 1.7275533711084053E7 ; 1.2112634479595952E9 ; 2.1599293479274187E9 ; 1.4122699610517615E11 ; 0.0
126 ; 1.7244971767224476E7 ; 1.2113266666333532E9 ; 2.1772048816385026E9 ; 1.4243825955313574E11 ; 0.0
127 ; 1.7216356280113496E7 ; 1.2113898108139668E9 ; 2.194449853405727E9 ; 1.436495862197691E11 ; 0.0
128 ; 1.718407847140645E7 ; 1.2114528772017953E9 ; 2.2116662096858406E9 ; 1.4486097603058307E11 ; 0.0
129 ; 1.7162963731234904E7 ; 1.2115158625556889E9 ; 2.228850288157247E9 ; 1.4607242890778485E11 ; 0.0
130 ; 1.7125453472410057E7 ; 1.2115787636911974E9 ; 2.246013251888482E9 ; 1.4728394477034055E11 ; 0.0
131 ; 1.708045183498583E7 ; 1.2116415774788494E9 ; 2.2631387053608923E9 ; 1.4849552353403174E11 ; 0.0
132 ; 1.7045987315857545E7 ; 1.2117043008424935E9 ; 2.280219157195878E9 ; 1.497071651115106E11 ; 0.0
133 ; 1.700888987820398E7 ; 1.2117669307577038E9 ; 2.2972651445117354E9 ; 1.509188694123531E11 ; 0.0
134 ; 1.6968340454045914E7 ; 1.2118294642502415E9 ; 2.3142740343899393E9 ; 1.5213063634311078E11 ; 0.0
135 ; 1.6922943055315174E7 ; 1.2118918983945768E9 ; 2.331242374843985E9 ; 1.5334246580736102E11 ; 0.0
136 ; 1.6876814180383973E7 ; 1.2119542303124642E9 ; 2.3481653178993E9 ; 1.5455435770575558E11 ; 0.0
137 ; 1.6835164853809286E7 ; 1.2120164571715703E9 ; 2.3650421320796843E9 ; 1.5576631193606805E11 ; 0.0
138 ; 1.6789834978548698E7 ; 1.212078576184151E9 ; 2.3818772969334936E9 ; 1.5697832839323962E11 ; 0.0
139 ; 1.6745676379836585E7 ; 1.21214058460578E9 ; 2.398667131912042E9 ; 1.5819040696942377E11 ; 0.0
140 ; 1.6710124661880292E7 ; 1.2122024797341216E9 ; 2.4154128082918787E9 ; 1.5940254755402954E11 ; 0.0
141 ; 1.6665755224132799E7 ; 1.2122642589077487E9 ; 2.432122932953759E9 ; 1.6061475003376367E11 ; 0.0
142 ; 1.6619066347426936E7 ; 1.212325919505004E9 ; 2.448788688177892E9 ; 1.6182701429267142E11 ; 0.0
143 ; 1.6574762731601276E7 ; 1.2123874589429026E9 ; 2.465407754525319E9 ; 1.6303934021217642E11 ; 0.0
144 ; 1.6526063557472313E7 ; 1.212448874676074E9 ; 2.4819825172569203E9 ; 1.6425172767111932E11 ; 0.0
145 ; 1.6495334833465293E7 ; 1.212510164195743E9 ; 2.4985085808143926E9 ; 1.654641765457954E11 ; 0.0
146 ; 1.6466632175071903E7 ; 1.2125713250287445E9 ; 2.5150039156478577E9 ; 1.6667668670999115E11 ; 0.0
147 ; 1.644152232528752E7 ; 1.2126323547365785E9 ; 2.5314705478229294E9 ; 1.678892580350199E11 ; 0.0
148 ; 1.6410938268963544E7 ; 1.2126932509144928E9 ; 2.5479120701482167E9 ; 1.6910189038975647E11 ; 0.0
149 ; 1.6385823342873704E7 ; 1.2127540111906044E9 ; 2.56432300841718E9 ; 1.7031458364067096E11 ; 0.0
150 ; 1.634884419416178E7 ; 1.212814633225047E9 ; 2.5807088317600536E9 ; 1.7152733765186157E11 ; 0.0
151 ; 1.632684709727671E7 ; 1.2128751147091515E9 ; 2.5970576759542155E9 ; 1.727401522850866E11 ; 0.0
152 ; 1.629332547790866E7 ; 1.2129354533646543E9 ; 2.613384523051492E9 ; 1.7395302739979575E11 ; 0.0
153 ; 1.6268551662128635E7 ; 1.212995646942935E9 ; 2.629677848529401E9 ; 1.751659628531604E11 ; 0.0
154 ; 1.623400258974915E7 ; 1.2130556932242775E9 ; 2.6459464001915293E9 ; 1.7637895850010333E11 ; 0.0
155 ; 1.6210730318945497E7 ; 1.2131155900171604E9 ; 2.6621804027812786E9 ; 1.775920141933276E11 ; 0.0
156 ; 1.6185984938397804E7 ; 1.2131753351575708E9 ; 2.678391133100224E9 ; 1.7880512978334476E11 ; 0.0
157 ; 1.6147102194796156E7 ; 1.2132349265083408E9 ; 2.694577118038622E9 ; 1.8001830511850232E11 ; 0.0
158 ; 1.6122932230517335E7 ; 1.2132943619585078E9 ; 2.710724220233418E9 ; 1.8123154004501065E11 ; 0.0
159 ; 1.6093589759370685E7 ; 1.2133536394226983E9 ; 2.7268471524639354E9 ; 1.8244483440696915E11 ; 0.0
160 ; 1.606092327815455E7 ; 1.2134127568405302E9 ; 2.742940742223306E9 ; 1.8365818804639185E11 ; 0.0
161 ; 1.6038928088179532E7 ; 1.2134717121760375E9 ; 2.7590016655014606E9 ; 1.8487160080323236E11 ; 0.0
162 ; 1.5998523723516006E7 ; 1.2135305034171147E9 ; 2.77504059358964E9 ; 1.860850725154084E11 ; 0.0
163 ; 1.5966363629712682E7 ; 1.2135891285749774E9 ; 2.791039117313156E9 ; 1.872986030188255E11 ; 0.0
164 ; 1.594074732230755E7 ; 1.213647585683646E9 ; 2.8070054809428687E9 ; 1.8851219214740048E11 ; 0.0
165 ; 1.5913453171338698E7 ; 1.2137058727994423E9 ; 2.8229462282651763E9 ; 1.8972583973308414E11 ; 0.0
166 ; 1.5885890478572516E7 ; 1.2137639880005057E9 ; 2.838859681436515E9 ; 1.9093954560588358E11 ; 0.0
167 ; 1.5857376499487948E7 ; 1.213821929386325E9 ; 2.854745571915087E9 ; 1.921533095938841E11 ; 0.0
168 ; 1.5822616047160931E7 ; 1.2138796950772853E9 ; 2.870602948414575E9 ; 1.9336713152327042E11 ; 0.0
169 ; 1.5797305079607949E7 ; 1.2139372832142315E9 ; 2.886425564461736E9 ; 1.945810112183477E11 ; 0.0
170 ; 1.5758272212712785E7 ; 1.2139946919580457E9 ; 2.902222869541344E9 ; 1.9579494850156192E11 ; 0.0
171 ; 1.5733313238459319E7 ; 1.2140519194892364E9 ; 2.917981141754057E9 ; 1.9700894319351996E11 ; 0.0
172 ; 1.5697707936092017E7 ; 1.214108964007546E9 ; 2.933714454992516E9 ; 1.982229951130092E11 ; 0.0
173 ; 1.5668177027319413E7 ; 1.2141658237315671E9 ; 2.949412162928608E9 ; 1.9943710407701672E11 ; 0.0
174 ; 1.564349372860725E7 ; 1.2142224968983738E9 ; 2.9650803399559274E9 ; 2.006512699007483E11 ; 0.0
175 ; 1.5629607763370937E7 ; 1.2142789817631638E9 ; 2.9807238336845345E9 ; 2.0186549239764667E11 ; 0.0
176 ; 1.5607777434591822E7 ; 1.2143352765989122E9 ; 2.9963534414479055E9 ; 2.0307977137940982E11 ; 0.0
177 ; 1.5577398066944456E7 ; 1.2143913796960402E9 ; 3.0119612188824973E9 ; 2.0429410665600873E11 ; 0.0
178 ; 1.5554040249732781E7 ; 1.2144472893620877E9 ; 3.027538616949442E9 ; 2.0550849803570477E11 ; 0.0
179 ; 1.5528872675938707E7 ; 1.2145030039214027E9 ; 3.043092657199175E9 ; 2.0672294532506686E11 ; 0.0
180 ; 1.5506757172235977E7 ; 1.2145585217148387E9 ; 3.0586215298751135E9 ; 2.0793744832898828E11 ; 0.0
181 ; 1.5477390730555056E7 ; 1.2146138410994608E9 ; 3.0741282870473495E9 ; 2.0915200685070312E11 ; 0.0
182 ; 1.545938647261205E7 ; 1.2146689604482632E9 ; 3.0896056777779045E9 ; 2.1036662069180258E11 ; 0.0
183 ; 1.5441578696572127E7 ; 1.2147238781498942E9 ; 3.1050650642505164E9 ; 2.1158128965225085E11 ; 0.0
184 ; 1.5412054475590862E7 ; 1.2147785926083913E9 ; 3.1205066429470887E9 ; 2.1279601353040076E11 ; 0.0
185 ; 1.5391067707426615E7 ; 1.2148331022429237E9 ; 3.1359186974226794E9 ; 2.1401079212300916E11 ; 0.0
186 ; 1.5362549395302795E7 ; 1.2148874054875436E9 ; 3.151309765130106E9 ; 2.1522562522525208E11 ; 0.0
187 ; 1.5342329315184275E7 ; 1.2149415007909465E9 ; 3.1666723145254087E9 ; 2.1644051263073962E11 ; 0.0
188 ; 1.531959832517547E7 ; 1.2149953866162362E9 ; 3.182014643840593E9 ; 2.1765545413153058E11 ; 0.0
189 ; 1.5297086485029135E7 ; 1.2150490614407003E9 ; 3.197334242165768E9 ; 2.1887044951814682E11 ; 0.0
190 ; 1.5275673719539374E7 ; 1.2151025237555914E9 ; 3.2126313286507974E9 ; 2.2008549857958752E11 ; 0.0
191 ; 1.5253688052331697E7 ; 1.215155772065916E9 ; 3.2279070023703365E9 ; 2.213006011033431E11 ; 0.0
192 ; 1.522089487344098E7 ; 1.2152088048902283E9 ; 3.2431606904226685E9 ; 2.2251575687540903E11 ; 0.0
193 ; 1.520147037695886E7 ; 1.2152616207604322E9 ; 3.258381585296109E9 ; 2.2373096568029926E11 ; 0.0
194 ; 1.517710754803387E7 ; 1.2153142182215905E9 ; 3.273583055673068E9 ; 2.249462273010597E11 ; 0.0
195 ; 1.5155912214235665E7 ; 1.2153665958317351E9 ; 3.2887601632211018E9 ; 2.2616154151928128E11 ; 0.0
