CSV File for the Network on Day 10
1 - Minute m 
2 - Power Consumed at minute m 
3 - Power Produced at minute m 
4 - Energy Consumed since the beginning of the day 
5 - Energy Produced since the beginning of the day 
6 - Energy Lost since the beginning of the day 
 
0 ; 4.9973143352089E7 ; 1.0516072819786595E8 ; 0.0 ; 0.0 ; 0.0
1 ; 5.0018586694063425E7 ; 1.0531504918552025E8 ; 4.9973143352089E7 ; 1.0516072819786595E8 ; 613.6199999999999
2 ; 5.007894776066901E7 ; 1.057780121484832E8 ; 9.999173004615243E7 ; 2.104757773833862E8 ; 1227.2399999999998
3 ; 5.013830281479839E7 ; 1.0654961708675481E8 ; 1.5007067780682144E8 ; 3.162537895318694E8 ; 1840.8599999999997
4 ; 5.0206669363431156E7 ; 1.0762986400033505E8 ; 2.0020898062161982E8 ; 4.228034066186242E8 ; 2454.4799999999996
5 ; 5.030083461188721E7 ; 1.0901875288922395E8 ; 2.5041564998505098E8 ; 5.3043327061895925E8 ; 3068.0999999999995
6 ; 5.042593669920447E7 ; 1.1071628375342147E8 ; 3.007164845969382E8 ; 6.394520235081832E8 ; 3681.7199999999993
7 ; 5.058805388886096E7 ; 1.1272245659292765E8 ; 3.5114242129614264E8 ; 7.501683072616047E8 ; 4295.339999999999
8 ; 5.082757239218558E7 ; 1.1503727140774246E8 ; 4.017304751850036E8 ; 8.628907638545324E8 ; 4908.959999999999
9 ; 5.1193022139117196E7 ; 1.1766072819786592E8 ; 4.5255804757718915E8 ; 9.779280352622749E8 ; 5522.579999999999
10 ; 5.175760489571345E7 ; 1.2059282696329804E8 ; 5.037510697163063E8 ; 1.0955887634601407E9 ; 6136.199999999999
11 ; 5.265091736970994E7 ; 1.2383356770403878E8 ; 5.555086746120198E8 ; 1.2161815904234388E9 ; 6749.819999999999
12 ; 5.409613950083964E7 ; 1.2738295042008816E8 ; 6.081595919817297E8 ; 1.3400151581274776E9 ; 7363.439999999999
13 ; 5.546069260126607E7 ; 1.3124097511144616E8 ; 6.622557314825693E8 ; 1.4673981085475657E9 ; 7977.059999999999
14 ; 5.563178217028686E7 ; 1.3540764177811286E8 ; 7.177164240838354E8 ; 1.5986390836590118E9 ; 8590.679999999998
15 ; 5.568672352131113E7 ; 1.3988295042008814E8 ; 7.733482062541223E8 ; 1.7340467254371247E9 ; 9204.3
16 ; 5.575490492768452E7 ; 1.446669010373721E8 ; 8.290349297754334E8 ; 1.8739296758572128E9 ; 9817.919999999998
17 ; 5.5820977110782675E7 ; 1.497594936299647E8 ; 8.84789834703118E8 ; 2.018596576894585E9 ; 10431.539999999997
18 ; 5.588152201097393E7 ; 1.5516072819786593E8 ; 9.406108118139006E8 ; 2.1683560705245495E9 ; 11045.159999999996
19 ; 5.5950648681359336E7 ; 1.6087060474107578E8 ; 9.964923338248745E8 ; 2.3235167987224154E9 ; 11658.779999999995
20 ; 5.601658478064174E7 ; 1.668891232595943E8 ; 1.0524429825062338E9 ; 2.4843874034634914E9 ; 12272.399999999994
21 ; 5.607889075761692E7 ; 1.7321628375342146E8 ; 1.1084595672868755E9 ; 2.651276526723086E9 ; 12886.019999999993
22 ; 5.615516484429597E7 ; 1.7985208622255725E8 ; 1.1645384580444925E9 ; 2.824492810476507E9 ; 13499.639999999992
23 ; 5.620777729815803E7 ; 1.8679653066700172E8 ; 1.2206936228887885E9 ; 3.0043448966990643E9 ; 14113.259999999991
24 ; 5.627593048968158E7 ; 1.940496170867548E8 ; 1.2769014001869464E9 ; 3.191141427366066E9 ; 14726.87999999999
25 ; 5.6341615649716675E7 ; 2.0029938638E8 ; 1.3331773306766279E9 ; 3.385191044452821E9 ; 15340.499999999989
26 ; 5.6411936936067194E7 ; 2.0029938638E8 ; 1.3895189463263445E9 ; 3.585490430832821E9 ; 15954.119999999988
27 ; 5.646010133724604E7 ; 2.0029938638E8 ; 1.4459308832624116E9 ; 3.785789817212821E9 ; 16567.739999999987
28 ; 5.65337206017112E7 ; 2.0029938638E8 ; 1.5023909845996575E9 ; 3.986089203592821E9 ; 17181.359999999986
29 ; 5.659469246763076E7 ; 2.0029938638E8 ; 1.5589247052013688E9 ; 4.186388589972821E9 ; 17794.979999999985
30 ; 5.665508273598364E7 ; 2.0029938638E8 ; 1.6155193976689997E9 ; 4.386687976352821E9 ; 18408.599999999984
31 ; 5.671443789331914E7 ; 2.0029938638E8 ; 1.6721744804049833E9 ; 4.586987362732821E9 ; 19022.219999999983
32 ; 5.6770860097079486E7 ; 2.0029938638E8 ; 1.7288889182983024E9 ; 4.787286749112822E9 ; 19635.839999999982
33 ; 5.6826977184106044E7 ; 2.0029938638E8 ; 1.785659778395382E9 ; 4.987586135492822E9 ; 20249.45999999998
34 ; 5.6883302767298415E7 ; 2.0029938638E8 ; 1.842486755579488E9 ; 5.187885521872822E9 ; 20863.07999999998
35 ; 5.692909860420114E7 ; 2.0029938638E8 ; 1.8993700583467865E9 ; 5.388184908252822E9 ; 21476.69999999998
36 ; 5.698732750563355E7 ; 2.0029938638E8 ; 1.9562991569509876E9 ; 5.588484294632822E9 ; 22090.319999999978
37 ; 5.704360270102975E7 ; 2.0029938638E8 ; 2.0132864844566212E9 ; 5.788783681012822E9 ; 22703.939999999977
38 ; 5.708569796262868E7 ; 2.0029938638E8 ; 2.070330087157651E9 ; 5.989083067392822E9 ; 23317.559999999976
39 ; 5.713053614127906E7 ; 2.0029938638E8 ; 2.1274157851202796E9 ; 6.189382453772822E9 ; 23931.179999999975
40 ; 5.717026578092526E7 ; 2.0029938638E8 ; 2.1845463212615585E9 ; 6.3896818401528225E9 ; 24544.799999999974
41 ; 5.7215085873637676E7 ; 2.0029938638E8 ; 2.241716587042484E9 ; 6.589981226532823E9 ; 25158.419999999973
42 ; 5.724840573734282E7 ; 2.0029938638E8 ; 2.2989316729161215E9 ; 6.790280612912823E9 ; 25772.03999999997
43 ; 5.728629726082104E7 ; 2.0029938638E8 ; 2.3561800786534643E9 ; 6.990579999292823E9 ; 26385.65999999997
44 ; 5.732164752797018E7 ; 2.0029938638E8 ; 2.413466375914285E9 ; 7.190879385672823E9 ; 26999.27999999997
45 ; 5.736247702414297E7 ; 2.0029938638E8 ; 2.4707880234422555E9 ; 7.391178772052823E9 ; 27612.89999999997
46 ; 5.737926072142391E7 ; 2.0029938638E8 ; 2.5281505004663982E9 ; 7.591478158432823E9 ; 28226.519999999968
47 ; 5.7410805227342606E7 ; 2.0029938638E8 ; 2.5855297611878223E9 ; 7.791777544812823E9 ; 28840.139999999967
48 ; 5.743733830344686E7 ; 2.0029938638E8 ; 2.642940566415165E9 ; 7.992076931192823E9 ; 29453.759999999966
49 ; 5.7452654679358125E7 ; 2.0029938638E8 ; 2.7003779047186117E9 ; 8.192376317572824E9 ; 30067.379999999965
50 ; 5.747728081129931E7 ; 2.0029938638E8 ; 2.7578305593979697E9 ; 8.392675703952824E9 ; 30680.999999999964
51 ; 5.748417174150695E7 ; 2.0029938638E8 ; 2.815307840209269E9 ; 8.592975090332823E9 ; 31294.619999999963
52 ; 5.750777517478925E7 ; 2.0029938638E8 ; 2.872792011950776E9 ; 8.793274476712822E9 ; 31908.23999999996
53 ; 5.751869329009427E7 ; 2.0029938638E8 ; 2.9302997871255655E9 ; 8.993573863092821E9 ; 32521.85999999996
54 ; 5.7534641277824916E7 ; 2.0029938638E8 ; 2.98781848041566E9 ; 9.19387324947282E9 ; 33135.47999999996
55 ; 5.755216274626262E7 ; 2.0029938638E8 ; 3.045353121693485E9 ; 9.39417263585282E9 ; 33749.09999999996
56 ; 5.756168045233977E7 ; 2.0029938638E8 ; 3.1029052844397473E9 ; 9.594472022232819E9 ; 34362.719999999965
57 ; 5.757709286953792E7 ; 2.0029938638E8 ; 3.160466964892087E9 ; 9.794771408612818E9 ; 34976.33999999997
58 ; 5.75932971548082E7 ; 2.0029938638E8 ; 3.218044057761625E9 ; 9.995070794992817E9 ; 35589.95999999997
59 ; 5.759974291752029E7 ; 2.0029938638E8 ; 3.275637354916433E9 ; 1.0195370181372816E10 ; 36203.57999999997
60 ; 5.762030410804026E7 ; 2.0029938638E8 ; 3.3332370978339534E9 ; 1.0395669567752815E10 ; 36817.199999999975
61 ; 5.762194033510162E7 ; 2.0029938638E8 ; 3.3908574019419937E9 ; 1.0595968954132814E10 ; 37430.81999999998
62 ; 5.763358156478308E7 ; 2.0029938638E8 ; 3.4484793422770953E9 ; 1.0796268340512814E10 ; 38044.43999999998
63 ; 5.7633365693684086E7 ; 2.0029938638E8 ; 3.5061129238418784E9 ; 1.0996567726892813E10 ; 38658.05999999998
64 ; 5.7650284983470246E7 ; 2.0029938638E8 ; 3.5637462895355625E9 ; 1.1196867113272812E10 ; 39271.679999999986
65 ; 5.766497383494171E7 ; 2.0029938638E8 ; 3.621396574519033E9 ; 1.1397166499652811E10 ; 39885.29999999999
66 ; 5.766514610445275E7 ; 2.0029938638E8 ; 3.679061548353975E9 ; 1.159746588603281E10 ; 40498.91999999999
67 ; 5.767373659044609E7 ; 2.0029938638E8 ; 3.7367266944584274E9 ; 1.179776527241281E10 ; 41112.53999999999
68 ; 5.768101727887962E7 ; 2.0029938638E8 ; 3.7944004310488734E9 ; 1.1998064658792809E10 ; 41726.159999999996
69 ; 5.76931703392235E7 ; 2.0029938638E8 ; 3.852081448327753E9 ; 1.2198364045172808E10 ; 42339.78
70 ; 5.7693659653815635E7 ; 2.0029938638E8 ; 3.9097746186669765E9 ; 1.2398663431552807E10 ; 42953.4
71 ; 5.770424898488318E7 ; 2.0029938638E8 ; 3.967468278320792E9 ; 1.2598962817932806E10 ; 43567.020000000004
72 ; 5.770326570627445E7 ; 2.0029938638E8 ; 4.0251725273056755E9 ; 1.2799262204312805E10 ; 44180.64000000001
73 ; 5.770879443945871E7 ; 2.0029938638E8 ; 4.08287579301195E9 ; 1.2999561590692804E10 ; 44794.26000000001
74 ; 5.771096650744941E7 ; 2.0029938638E8 ; 4.140584587451409E9 ; 1.3199860977072803E10 ; 45407.88000000001
75 ; 5.7724890443451844E7 ; 2.0029938638E8 ; 4.1982955539588585E9 ; 1.3400160363452803E10 ; 46021.500000000015
76 ; 5.772555958186507E7 ; 2.0029938638E8 ; 4.2560204444023104E9 ; 1.3600459749832802E10 ; 46635.12000000002
77 ; 5.7727147028444245E7 ; 2.0029938638E8 ; 4.313746003984176E9 ; 1.3800759136212801E10 ; 47248.74000000002
78 ; 5.769759376572071E7 ; 2.0029938638E8 ; 4.37147315101262E9 ; 1.40010585225928E10 ; 47862.36000000002
79 ; 5.769048129606547E7 ; 2.0029938638E8 ; 4.42917074477834E9 ; 1.42013579089728E10 ; 48475.980000000025
80 ; 5.7673956768974096E7 ; 2.0029938638E8 ; 4.486861226074406E9 ; 1.4401657295352798E10 ; 49089.60000000003
81 ; 5.7657672909812726E7 ; 2.0029938638E8 ; 4.54453518284338E9 ; 1.4601956681732798E10 ; 49703.22000000003
82 ; 5.763551082005831E7 ; 2.0029938638E8 ; 4.602192855753193E9 ; 1.4802256068112797E10 ; 50316.84000000003
83 ; 5.7625194112936676E7 ; 2.0029938638E8 ; 4.659828366573251E9 ; 1.5002555454492796E10 ; 50930.460000000036
84 ; 5.760102695325309E7 ; 2.0029938638E8 ; 4.717453560686188E9 ; 1.5202854840872795E10 ; 51544.08000000004
85 ; 5.758748297700042E7 ; 2.0029938638E8 ; 4.775054587639441E9 ; 1.5403154227252794E10 ; 52157.70000000004
86 ; 5.75659365931672E7 ; 2.0029938638E8 ; 4.832642070616441E9 ; 1.5603453613632793E10 ; 52771.32000000004
87 ; 5.7543488894244E7 ; 2.0029938638E8 ; 4.890208007209608E9 ; 1.5803753000012793E10 ; 53384.940000000046
88 ; 5.752323373530942E7 ; 2.0029938638E8 ; 4.947751496103852E9 ; 1.6004052386392792E10 ; 53998.56000000005
89 ; 5.750388036618582E7 ; 2.0029938638E8 ; 5.005274729839162E9 ; 1.620435177277279E10 ; 54612.18000000005
90 ; 5.747811568937346E7 ; 2.0029938638E8 ; 5.062778610205348E9 ; 1.640465115915279E10 ; 55225.800000000054
91 ; 5.745931324884301E7 ; 2.0029938638E8 ; 5.120256725894721E9 ; 1.660495054553279E10 ; 55839.42000000006
92 ; 5.7431130704093605E7 ; 2.0029938638E8 ; 5.177716039143564E9 ; 1.6805249931912788E10 ; 56453.04000000006
93 ; 5.7409792029663846E7 ; 2.0029938638E8 ; 5.235147169847658E9 ; 1.7005549318292788E10 ; 57066.66000000006
94 ; 5.738593571028646E7 ; 2.0029938638E8 ; 5.292556961877322E9 ; 1.7205848704672787E10 ; 57680.280000000064
95 ; 5.736163543242437E7 ; 2.0029938638E8 ; 5.349942897587608E9 ; 1.7406148091052788E10 ; 58293.90000000007
96 ; 5.733915544001143E7 ; 2.0029938638E8 ; 5.407304533020033E9 ; 1.760644747743279E10 ; 58907.52000000007
97 ; 5.730850281786547E7 ; 2.0029938638E8 ; 5.464643688460044E9 ; 1.780674686381279E10 ; 59521.14000000007
98 ; 5.728628544474481E7 ; 2.0029938638E8 ; 5.521952191277909E9 ; 1.800704625019279E10 ; 60134.760000000075
99 ; 5.726034232800791E7 ; 2.0029938638E8 ; 5.579238476722654E9 ; 1.8207345636572792E10 ; 60748.38000000008
100 ; 5.7231239044052705E7 ; 2.0029938638E8 ; 5.636498819050662E9 ; 1.8407645022952793E10 ; 61362.00000000008
101 ; 5.720071111522217E7 ; 2.0029938638E8 ; 5.693730058094715E9 ; 1.8607944409332794E10 ; 61975.62000000008
102 ; 5.717265605557264E7 ; 2.0029938638E8 ; 5.750930769209937E9 ; 1.8808243795712795E10 ; 62589.240000000085
103 ; 5.714690309754382E7 ; 2.0029938638E8 ; 5.80810342526551E9 ; 1.9008543182092796E10 ; 63202.86000000009
104 ; 5.711640356389495E7 ; 2.0029938638E8 ; 5.865250328363053E9 ; 1.9208842568472797E10 ; 63816.48000000009
105 ; 5.7081153878442295E7 ; 2.0029938638E8 ; 5.922366731926949E9 ; 1.94091419548528E10 ; 64430.10000000009
106 ; 5.705367717785013E7 ; 2.0029938638E8 ; 5.979447885805391E9 ; 1.96094413412328E10 ; 65043.720000000096
107 ; 5.701630123053214E7 ; 2.0029938638E8 ; 6.036501562983241E9 ; 1.98097407276128E10 ; 65657.3400000001
108 ; 5.6993054052413955E7 ; 2.0029938638E8 ; 6.093517864213773E9 ; 2.00100401139928E10 ; 66270.9600000001
109 ; 5.695456315588556E7 ; 2.0029938638E8 ; 6.150510918266187E9 ; 2.0210339500372803E10 ; 66884.58000000009
110 ; 5.6928442772011295E7 ; 2.0029938638E8 ; 6.207465481422072E9 ; 2.0410638886752804E10 ; 67498.20000000008
111 ; 5.688691811272761E7 ; 2.0029938638E8 ; 6.264393924194084E9 ; 2.0610938273132805E10 ; 68111.82000000008
112 ; 5.685099585572724E7 ; 2.0029938638E8 ; 6.321280842306811E9 ; 2.0811237659512806E10 ; 68725.44000000008
113 ; 5.681451306175213E7 ; 2.0029938638E8 ; 6.378131838162539E9 ; 2.1011537045892807E10 ; 69339.06000000007
114 ; 5.678159906187993E7 ; 2.0029938638E8 ; 6.434946351224291E9 ; 2.1211836432272808E10 ; 69952.68000000007
115 ; 5.674184579685201E7 ; 2.0029938638E8 ; 6.491727950286171E9 ; 2.141213581865281E10 ; 70566.30000000006
116 ; 5.670567060229309E7 ; 2.0029938638E8 ; 6.548469796083023E9 ; 2.161243520503281E10 ; 71179.92000000006
117 ; 5.66716448046419E7 ; 2.0029938638E8 ; 6.605175466685316E9 ; 2.181273459141281E10 ; 71793.54000000005
118 ; 5.663468302332981E7 ; 2.0029938638E8 ; 6.661847111489958E9 ; 2.2013033977792812E10 ; 72407.16000000005
119 ; 5.660160609127717E7 ; 2.0029938638E8 ; 6.718481794513288E9 ; 2.2213333364172813E10 ; 73020.78000000004
120 ; 5.6559127131972805E7 ; 2.0029938638E8 ; 6.775083400604565E9 ; 2.2413632750552814E10 ; 73634.40000000004
121 ; 5.65188411650992E7 ; 2.0029938638E8 ; 6.831642527736538E9 ; 2.2613932136932816E10 ; 74248.02000000003
122 ; 5.6478410769128144E7 ; 2.0029938638E8 ; 6.888161368901637E9 ; 2.2814231523312817E10 ; 74861.64000000003
123 ; 5.643920396814354E7 ; 2.0029938638E8 ; 6.944639779670765E9 ; 2.3014530909692818E10 ; 75475.26000000002
124 ; 5.639807906752117E7 ; 2.0029938638E8 ; 7.001078983638908E9 ; 2.321483029607282E10 ; 76088.88000000002
125 ; 5.635466168447417E7 ; 2.0029938638E8 ; 7.0574770627064295E9 ; 2.341512968245282E10 ; 76702.50000000001
126 ; 5.631393203731451E7 ; 2.0029938638E8 ; 7.113831724390903E9 ; 2.361542906883282E10 ; 77316.12000000001
127 ; 5.627181797721149E7 ; 2.0029938638E8 ; 7.170145656428218E9 ; 2.3815728455212822E10 ; 77929.74
128 ; 5.6232733482352056E7 ; 2.0029938638E8 ; 7.22641747440543E9 ; 2.4016027841592823E10 ; 78543.36
129 ; 5.618656050875809E7 ; 2.0029938638E8 ; 7.282650207887782E9 ; 2.4216327227972824E10 ; 79156.98
130 ; 5.613102363222743E7 ; 2.0029938638E8 ; 7.338836768396541E9 ; 2.4416626614352825E10 ; 79770.59999999999
131 ; 5.6070573614276335E7 ; 2.0029938638E8 ; 7.394967792028769E9 ; 2.4616926000732826E10 ; 80384.21999999999
132 ; 5.600418086592849E7 ; 2.0029938638E8 ; 7.451038365643044E9 ; 2.4817225387112827E10 ; 80997.83999999998
133 ; 5.594453594083114E7 ; 2.0029938638E8 ; 7.507042546508973E9 ; 2.501752477349283E10 ; 81611.45999999998
134 ; 5.58783011580332E7 ; 2.0029938638E8 ; 7.562987082449804E9 ; 2.521782415987283E10 ; 82225.07999999997
135 ; 5.5810614542274594E7 ; 2.0029938638E8 ; 7.618865383607838E9 ; 2.541812354625283E10 ; 82838.69999999997
136 ; 5.576033838951705E7 ; 2.0029938638E8 ; 7.674675998150112E9 ; 2.561842293263283E10 ; 83452.31999999996
137 ; 5.569220906592666E7 ; 2.0029938638E8 ; 7.730436336539629E9 ; 2.5818722319012833E10 ; 84065.93999999996
138 ; 5.561978146262345E7 ; 2.0029938638E8 ; 7.786128545605556E9 ; 2.6019021705392834E10 ; 84679.55999999995
139 ; 5.55543566823262E7 ; 2.0029938638E8 ; 7.841748327068179E9 ; 2.6219321091772835E10 ; 85293.17999999995
140 ; 5.549373965164728E7 ; 2.0029938638E8 ; 7.897302683750505E9 ; 2.6419620478152836E10 ; 85906.79999999994
141 ; 5.541733561848668E7 ; 2.0029938638E8 ; 7.952796423402153E9 ; 2.6619919864532837E10 ; 86520.41999999994
142 ; 5.5357275536692165E7 ; 2.0029938638E8 ; 8.008213759020639E9 ; 2.6820219250912838E10 ; 87134.03999999994
143 ; 5.529096422283446E7 ; 2.0029938638E8 ; 8.063571034557332E9 ; 2.702051863729284E10 ; 87747.65999999993
144 ; 5.521920561086951E7 ; 2.0029938638E8 ; 8.118861998780167E9 ; 2.722081802367284E10 ; 88361.27999999993
145 ; 5.517077713020588E7 ; 2.0029938638E8 ; 8.174081204391036E9 ; 2.742111741005284E10 ; 88974.89999999992
146 ; 5.5121299124025084E7 ; 2.0029938638E8 ; 8.229251981521242E9 ; 2.7621416796432842E10 ; 89588.51999999992
147 ; 5.507998074691177E7 ; 2.0029938638E8 ; 8.2843732806452675E9 ; 2.7821716182812843E10 ; 90202.13999999991
148 ; 5.503396849951244E7 ; 2.0029938638E8 ; 8.3394532613921795E9 ; 2.8022015569192844E10 ; 90815.75999999991
149 ; 5.49813867484472E7 ; 2.0029938638E8 ; 8.394487229891692E9 ; 2.8222314955572845E10 ; 91429.3799999999
150 ; 5.493951638474468E7 ; 2.0029938638E8 ; 8.44946861664014E9 ; 2.8422614341952847E10 ; 92042.9999999999
151 ; 5.488558160329265E7 ; 2.0029938638E8 ; 8.504408133024884E9 ; 2.8622913728332848E10 ; 92656.6199999999
152 ; 5.484121687520928E7 ; 2.0029938638E8 ; 8.559293714628177E9 ; 2.882321311471285E10 ; 93270.23999999989
153 ; 5.478685023440829E7 ; 2.0029938638E8 ; 8.614134931503386E9 ; 2.902351250109285E10 ; 93883.85999999988
154 ; 5.4739087729196616E7 ; 2.0029938638E8 ; 8.668921781737793E9 ; 2.922381188747285E10 ; 94497.47999999988
155 ; 5.468730244642705E7 ; 2.0029938638E8 ; 8.72366086946699E9 ; 2.942411127385285E10 ; 95111.09999999987
156 ; 5.4642642132604E7 ; 2.0029938638E8 ; 8.778348171913416E9 ; 2.9624410660232853E10 ; 95724.71999999987
157 ; 5.45936818205913E7 ; 2.0029938638E8 ; 8.83299081404602E9 ; 2.9824710046612854E10 ; 96338.33999999987
158 ; 5.454912884246828E7 ; 2.0029938638E8 ; 8.887584495866611E9 ; 3.0025009432992855E10 ; 96951.95999999986
159 ; 5.448879812034759E7 ; 2.0029938638E8 ; 8.94213362470908E9 ; 3.0225308819372856E10 ; 97565.57999999986
160 ; 5.445335054662186E7 ; 2.0029938638E8 ; 8.996622422829428E9 ; 3.0425608205752857E10 ; 98179.19999999985
161 ; 5.439414775260677E7 ; 2.0029938638E8 ; 9.051075773376049E9 ; 3.062590759213286E10 ; 98792.81999999985
162 ; 5.434179100619985E7 ; 2.0029938638E8 ; 9.105469921128656E9 ; 3.082620697851286E10 ; 99406.43999999984
163 ; 5.42968010251531E7 ; 2.0029938638E8 ; 9.159811712134857E9 ; 3.102650636489286E10 ; 100020.05999999984
164 ; 5.4236585522386506E7 ; 2.0029938638E8 ; 9.21410851316001E9 ; 3.122680575127286E10 ; 100633.67999999983
165 ; 5.4181753913981155E7 ; 2.0029938638E8 ; 9.268345098682396E9 ; 3.1427105137652863E10 ; 101247.29999999983
166 ; 5.413515867146087E7 ; 2.0029938638E8 ; 9.322526852596376E9 ; 3.1627404524032864E10 ; 101860.91999999982
167 ; 5.40872468839404E7 ; 2.0029938638E8 ; 9.376662011267838E9 ; 3.1827703910412865E10 ; 102474.53999999982
168 ; 5.402784344422392E7 ; 2.0029938638E8 ; 9.430749258151777E9 ; 3.2028003296792866E10 ; 103088.15999999981
169 ; 5.398525653272523E7 ; 2.0029938638E8 ; 9.484777101596E9 ; 3.2228302683172867E10 ; 103701.77999999981
170 ; 5.393349667996832E7 ; 2.0029938638E8 ; 9.538762358128725E9 ; 3.2428602069552868E10 ; 104315.3999999998
171 ; 5.388287183796163E7 ; 2.0029938638E8 ; 9.592695854808693E9 ; 3.262890145593287E10 ; 104929.0199999998
172 ; 5.381533481640256E7 ; 2.0029938638E8 ; 9.646578726646654E9 ; 3.282920084231287E10 ; 105542.6399999998
173 ; 5.3773637213898405E7 ; 2.0029938638E8 ; 9.700394061463057E9 ; 3.302950022869287E10 ; 106156.25999999979
174 ; 5.374507915900401E7 ; 2.0029938638E8 ; 9.754167698676954E9 ; 3.3229799615072872E10 ; 106769.87999999979
175 ; 5.370629021332533E7 ; 2.0029938638E8 ; 9.807912777835958E9 ; 3.3430099001452873E10 ; 107383.49999999978
176 ; 5.36726255569507E7 ; 2.0029938638E8 ; 9.861619068049284E9 ; 3.3630398387832874E10 ; 107997.11999999978
177 ; 5.364537028634796E7 ; 2.0029938638E8 ; 9.915291693606236E9 ; 3.3830697774212875E10 ; 108610.73999999977
178 ; 5.361048339169988E7 ; 2.0029938638E8 ; 9.968937063892584E9 ; 3.4030997160592876E10 ; 109224.35999999977
179 ; 5.35817678980321E7 ; 2.0029938638E8 ; 1.0022547547284285E10 ; 3.4231296546972878E10 ; 109837.97999999976
180 ; 5.3547355378714085E7 ; 2.0029938638E8 ; 1.0076129315182316E10 ; 3.4431595933352875E10 ; 110451.59999999976
181 ; 5.3513322038281046E7 ; 2.0029938638E8 ; 1.012967667056103E10 ; 3.463189531973287E10 ; 111065.21999999975
