CSV File for the Network on Day 190
1 - Minute m 
2 - Power Consumed at minute m 
3 - Power Produced at minute m 
4 - Energy Consumed since the beginning of the day 
5 - Energy Produced since the beginning of the day 
6 - Energy Lost since the beginning of the day 
 
0 ; 5703896.26955736 ; 6.341300098664099E8 ; 0.0 ; 0.0 ; 0.0
1 ; 5736561.281276191 ; 6.350397901676178E8 ; 5703896.26955736 ; 6.341300098664099E8 ; 0.0
2 ; 5784712.835744647 ; 6.37803047968272E8 ; 1.144045755083355E7 ; 1.2691698000340276E9 ; 0.0
3 ; 5832773.292344276 ; 6.424198070893383E8 ; 1.7225170386578195E7 ; 1.9069728480022995E9 ; 0.0
4 ; 5888898.2500461 ; 6.488900890135095E8 ; 2.305794367892247E7 ; 2.5493926550916376E9 ; 0.0
5 ; 5964991.731547673 ; 6.572139127215002E8 ; 2.894684192896857E7 ; 3.1982827441051474E9 ; 0.0
6 ; 6053561.157852868 ; 6.673912945434877E8 ; 3.491183366051625E7 ; 3.8554966568266478E9 ; 0.0
7 ; 6190624.136539148 ; 6.794222480283391E8 ; 4.096539481836911E7 ; 4.522887951370135E9 ; 0.0
8 ; 6375556.7060250845 ; 6.933067838330185E8 ; 4.715601895490826E7 ; 5.202310199398475E9 ; 0.0
9 ; 6651940.8707170375 ; 7.090449096342609E8 ; 5.3531575660933346E7 ; 5.895616983231493E9 ; 0.0
10 ; 7093846.598928422 ; 7.266366300642121E8 ; 6.018351653165038E7 ; 6.604661892865754E9 ; 0.0
11 ; 7778446.823234134 ; 7.460819466712981E8 ; 6.72773631305788E7 ; 7.331298522929966E9 ; 0.0
12 ; 8896275.730478337 ; 7.673808579070929E8 ; 7.505580995381294E7 ; 8.077380469601264E9 ; 0.0
13 ; 9955478.35248968 ; 7.905333591394502E8 ; 8.395208568429127E7 ; 8.844761327508356E9 ; 0.0
14 ; 1.0086996225829221E7 ; 8.155394426916358E8 ; 9.390756403678095E7 ; 9.635294686647806E9 ; 0.0
15 ; 1.0142522376323447E7 ; 8.423990979066854E8 ; 1.0399456026261017E8 ; 1.0450834129339441E10 ; 0.0
16 ; 1.0192565160162522E7 ; 8.711123112357317E8 ; 1.1413708263893361E8 ; 1.1293233227246126E10 ; 0.0
17 ; 1.0244086773633901E7 ; 9.016790663485976E8 ; 1.2432964779909614E8 ; 1.2164345538481857E10 ; 0.0
18 ; 1.0298636127018146E7 ; 9.340993442645683E8 ; 1.3457373457273003E8 ; 1.3066024604830456E10 ; 0.0
19 ; 1.034792130991998E7 ; 9.683731235009512E8 ; 1.448723706997482E8 ; 1.4000123949095024E10 ; 0.0
20 ; 1.0406335382275924E7 ; 1.00450038023678E9 ; 1.5522029200966817E8 ; 1.4968497072595976E10 ; 0.0
21 ; 1.0455827493364608E7 ; 1.0424810884888787E9 ; 1.656266273919441E8 ; 1.5972997452832756E10 ; 0.0
22 ; 1.051840989621628E7 ; 1.0823152202974117E9 ; 1.760824548853087E8 ; 1.7015478541321634E10 ; 0.0
23 ; 1.0562435697486112E7 ; 1.1240027459180624E9 ; 1.86600864781525E8 ; 1.8097793761619045E10 ; 0.0
24 ; 1.0619063697782522E7 ; 1.1675436340180426E9 ; 1.971633004790111E8 ; 1.922179650753711E10 ; 0.0
25 ; 1.0671398699357435E7 ; 1.205066097262384E9 ; 2.077823641767936E8 ; 2.0389340141555153E10 ; 0.0
26 ; 1.0719343957804134E7 ; 1.2050913887312117E9 ; 2.1845376287615103E8 ; 2.1594406238817535E10 ; 0.0
27 ; 1.0786340185209522E7 ; 1.2051180892615447E9 ; 2.2917310683395517E8 ; 2.2799497627548748E10 ; 0.0
28 ; 1.0830313209637605E7 ; 1.2051461631148026E9 ; 2.3995944701916468E8 ; 2.400461571681029E10 ; 0.0
29 ; 1.0880934153953802E7 ; 1.2051755739159572E9 ; 2.507897602288023E8 ; 2.5209761879925095E10 ; 0.0
30 ; 1.093540881349166E7 ; 1.2052062848245945E9 ; 2.6167069438275608E8 ; 2.6414937453841053E10 ; 0.0
31 ; 1.0980863746061284E7 ; 1.2052382586962419E9 ; 2.7260610319624776E8 ; 2.762014373866565E10 ; 0.0
32 ; 1.1031707904030591E7 ; 1.205271458233097E9 ; 2.83586966942309E8 ; 2.8825381997361893E10 ; 0.0
33 ; 1.1080250269979402E7 ; 1.205305846123573E9 ; 2.946186748463396E8 ; 3.003065345559499E10 ; 0.0
34 ; 1.1129424172221035E7 ; 1.2053413851703005E9 ; 3.05698925116319E8 ; 3.1235959301718563E10 ; 0.0
35 ; 1.1173486691140305E7 ; 1.2053780384064481E9 ; 3.1682834928854E8 ; 3.2441300686888863E10 ; 0.0
36 ; 1.1221340760593358E7 ; 1.2054157692004058E9 ; 3.280018359796803E8 ; 3.364667872529531E10 ; 0.0
37 ; 1.1261859780278476E7 ; 1.2054545413490453E9 ; 3.3922317674027365E8 ; 3.485209449449572E10 ; 0.0
38 ; 1.1302560885896582E7 ; 1.2054943191598961E9 ; 3.5048503652055216E8 ; 3.6057549035844765E10 ; 0.0
39 ; 1.1341431655098312E7 ; 1.205535067522692E9 ; 3.617875974064487E8 ; 3.726304335500466E10 ; 0.0
40 ; 1.138324546735587E7 ; 1.2055767519708192E9 ; 3.7312902906154704E8 ; 3.846857842252735E10 ; 0.0
41 ; 1.1426933316218048E7 ; 1.205619338733272E9 ; 3.845122745289029E8 ; 3.967415517449817E10 ; 0.0
42 ; 1.1459665672907416E7 ; 1.2056627947777472E9 ; 3.959392078451209E8 ; 4.087977451323144E10 ; 0.0
43 ; 1.1495846739405312E7 ; 1.2057070878455439E9 ; 4.073988735180283E8 ; 4.2085437308009186E10 ; 0.0
44 ; 1.1519565882634921E7 ; 1.2057521864789495E9 ; 4.1889472025743365E8 ; 4.329114439585473E10 ; 0.0
45 ; 1.1557054406860294E7 ; 1.205798060041771E9 ; 4.304142861400686E8 ; 4.449689658233368E10 ; 0.0
46 ; 1.1583696829210049E7 ; 1.2058446787336764E9 ; 4.419713405469289E8 ; 4.570269464237545E10 ; 0.0
47 ; 1.16101611657182E7 ; 1.2058920135989819E9 ; 4.535550373761389E8 ; 4.690853932110912E10 ; 0.0
48 ; 1.1636829626762247E7 ; 1.2059400365304909E9 ; 4.651651985418571E8 ; 4.811443133470811E10 ; 0.0
49 ; 1.1665895836982913E7 ; 1.2059887202689595E9 ; 4.768020281686194E8 ; 4.93203713712386E10 ; 0.0
50 ; 1.1682288849573746E7 ; 1.2060380383987346E9 ; 4.884679240056023E8 ; 5.052636009150756E10 ; 0.0
51 ; 1.1698791842501232E7 ; 1.2060879653400562E9 ; 5.0015021285517603E8 ; 5.1732398129906296E10 ; 0.0
52 ; 1.1721105286363427E7 ; 1.2061384763385024E9 ; 5.1184900469767725E8 ; 5.293848609524635E10 ; 0.0
53 ; 1.1738139612374352E7 ; 1.2061895474519901E9 ; 5.235701099840407E8 ; 5.4144624571584854E10 ; 0.0
54 ; 1.1756517635231964E7 ; 1.206241155535728E9 ; 5.3530824959641504E8 ; 5.535081411903684E10 ; 0.0
55 ; 1.1772597199029991E7 ; 1.2062932782254686E9 ; 5.47064767231647E8 ; 5.655705527457257E10 ; 0.0
56 ; 1.1790405538359012E7 ; 1.2063458939193807E9 ; 5.58837364430677E8 ; 5.776334855279804E10 ; 0.0
57 ; 1.181083827006339E7 ; 1.206398981758818E9 ; 5.706277699690361E8 ; 5.896969444671742E10 ; 0.0
58 ; 1.1822425866121987E7 ; 1.2064525216082456E9 ; 5.824386082390995E8 ; 6.017609342847624E10 ; 0.0
59 ; 1.18467065428087E7 ; 1.2065064940345416E9 ; 5.942610341052215E8 ; 6.138254595008449E10 ; 0.0
60 ; 1.1858300277005063E7 ; 1.206560880285869E9 ; 6.061077406480302E8 ; 6.2589052444119026E10 ; 0.0
61 ; 1.1883890241402425E7 ; 1.2066156622702951E9 ; 6.179660409250352E8 ; 6.379561332440489E10 ; 0.0
62 ; 1.1903582782872086E7 ; 1.206670822534304E9 ; 6.298499311664376E8 ; 6.5002228986675186E10 ; 0.0
63 ; 1.1917583897126794E7 ; 1.2067263442413306E9 ; 6.417535139493097E8 ; 6.620889980920949E10 ; 0.0
64 ; 1.1933093469155867E7 ; 1.2067822111504285E9 ; 6.536710978464365E8 ; 6.741562615345082E10 ; 0.0
65 ; 1.194618582228589E7 ; 1.2068384075951645E9 ; 6.656041913155924E8 ; 6.862240836460125E10 ; 0.0
66 ; 1.1962539378282579E7 ; 1.206894918462817E9 ; 6.775503771378783E8 ; 6.982924677219641E10 ; 0.0
67 ; 1.197536503988411E7 ; 1.2069517291739466E9 ; 6.895129165161608E8 ; 7.103614169065923E10 ; 0.0
68 ; 1.1989673769357886E7 ; 1.2070088256623917E9 ; 7.014882815560449E8 ; 7.224309341983318E10 ; 0.0
69 ; 1.2007814104406035E7 ; 1.20706619435573E9 ; 7.134779553254029E8 ; 7.345010224549557E10 ; 0.0
70 ; 1.2022883615292523E7 ; 1.2071238221562445E9 ; 7.254857694298089E8 ; 7.46571684398513E10 ; 0.0
71 ; 1.2034869798209555E7 ; 1.2071816964224157E9 ; 7.375086530451014E8 ; 7.586429226200755E10 ; 0.0
72 ; 1.2044359688541422E7 ; 1.2072398049509645E9 ; 7.49543522843311E8 ; 7.707147395842996E10 ; 0.0
73 ; 1.2059963343217362E7 ; 1.2072981359594507E9 ; 7.615878825318524E8 ; 7.827871376338092E10 ; 0.0
74 ; 1.2070973091810439E7 ; 1.2073566780694463E9 ; 7.736478458750697E8 ; 7.948601189934038E10 ; 0.0
75 ; 1.2087666792388728E7 ; 1.2074154202902772E9 ; 7.857188189668802E8 ; 8.069336857740982E10 ; 0.0
76 ; 1.2096723066175114E7 ; 1.2074743520033379E9 ; 7.978064857592689E8 ; 8.19007839977001E10 ; 0.0
77 ; 1.2107247425380707E7 ; 1.207533462946974E9 ; 8.09903208825444E8 ; 8.310825834970345E10 ; 0.0
78 ; 1.2107389158052083E7 ; 1.2075927432019286E9 ; 8.220104562508247E8 ; 8.431579181265042E10 ; 0.0
79 ; 1.210707125595611E7 ; 1.207652183177339E9 ; 8.341178454088768E8 ; 8.552338455585236E10 ; 0.0
80 ; 1.2107885881435383E7 ; 1.2077117735972807E9 ; 8.462249166648328E8 ; 8.67310367390297E10 ; 0.0
81 ; 1.2104359325172804E7 ; 1.2077715054878397E9 ; 8.583328025462682E8 ; 8.793874851262697E10 ; 0.0
82 ; 1.2104925571237013E7 ; 1.2078313701647034E9 ; 8.70437161871441E8 ; 8.91465200181148E10 ; 0.0
83 ; 1.2100403722841615E7 ; 1.2078913592212572E9 ; 8.82542087442678E8 ; 9.035435138827951E10 ; 0.0
84 ; 1.2094725808847025E7 ; 1.2079514645171704E9 ; 8.946424911655196E8 ; 9.156224274750076E10 ; 0.0
85 ; 1.2088985135378636E7 ; 1.2080116781674535E9 ; 9.067372169743667E8 ; 9.277019421201793E10 ; 0.0
86 ; 1.2096808926367804E7 ; 1.2080719925319805E9 ; 9.188262021097453E8 ; 9.397820589018538E10 ; 0.0
87 ; 1.2085498095709054E7 ; 1.2081324002054477E9 ; 9.30923011036113E8 ; 9.518627788271736E10 ; 0.0
88 ; 1.2087497348845003E7 ; 1.2081928940077643E9 ; 9.430085091318221E8 ; 9.63944102829228E10 ; 0.0
89 ; 1.2080100507569488E7 ; 1.2082534669748533E9 ; 9.550960064806671E8 ; 9.760260317693057E10 ; 0.0
90 ; 1.2072323302630773E7 ; 1.208314112349849E9 ; 9.671761069882365E8 ; 9.881085664390543E10 ; 0.0
91 ; 1.2070323901002694E7 ; 1.2083748235746746E9 ; 9.792484302908673E8 ; 1.0001917075625528E11 ; 0.0
92 ; 1.2066832855117982E7 ; 1.2084355942819862E9 ; 9.9131875419187E8 ; 1.0122754557982996E11 ; 0.0
93 ; 1.2060910164010933E7 ; 1.208496418287468E9 ; 1.003385587046988E9 ; 1.0243598117411194E11 ; 0.0
94 ; 1.2053835845838148E7 ; 1.2085572895824618E9 ; 1.0154464972109989E9 ; 1.0364447759239941E11 ; 0.0
95 ; 1.2042692383924909E7 ; 1.2086182023269238E9 ; 1.0275003330568371E9 ; 1.0485303488198187E11 ; 0.0
96 ; 1.2036594336590568E7 ; 1.208679150842684E9 ; 1.039543025440762E9 ; 1.0606165308430879E11 ; 0.0
97 ; 1.2030639516505899E7 ; 1.2087401296070065E9 ; 1.0515796197773526E9 ; 1.0727033223515147E11 ; 0.0
98 ; 1.2031345335065547E7 ; 1.2088011332464304E9 ; 1.0636102592938585E9 ; 1.0847907236475848E11 ; 0.0
99 ; 1.2020104505979931E7 ; 1.2088621565308805E9 ; 1.0756416046289241E9 ; 1.0968787349800491E11 ; 0.0
100 ; 1.2010831522413792E7 ; 1.2089231943680382E9 ; 1.0876617091349041E9 ; 1.108967356545358E11 ; 0.0
101 ; 1.2004402379484538E7 ; 1.2089842417979593E9 ; 1.0996725406573179E9 ; 1.1210565884890384E11 ; 0.0
102 ; 1.1995879182088997E7 ; 1.209045293987928E9 ; 1.1116769430368025E9 ; 1.133146430907018E11 ; 0.0
103 ; 1.1986304891846608E7 ; 1.2091063462275343E9 ; 1.1236728222188916E9 ; 1.1452368838468973E11 ; 0.0
104 ; 1.1980032364292534E7 ; 1.2091673939239712E9 ; 1.1356591271107383E9 ; 1.1573279473091727E11 ; 0.0
105 ; 1.1962081264894076E7 ; 1.2092284325975344E9 ; 1.147639159475031E9 ; 1.1694196212484123E11 ; 0.0
106 ; 1.1961202200676408E7 ; 1.2092894578773186E9 ; 1.159601240739925E9 ; 1.1815119055743877E11 ; 0.0
107 ; 1.1950178156765351E7 ; 1.2093504654971025E9 ; 1.1715624429406013E9 ; 1.1936048001531609E11 ; 0.0
108 ; 1.1941844167521872E7 ; 1.2094114512914133E9 ; 1.1835126210973668E9 ; 1.2056983048081319E11 ; 0.0
109 ; 1.1924304531574743E7 ; 1.2094724111917593E9 ; 1.1954544652648888E9 ; 1.217792419321046E11 ; 0.0
110 ; 1.1916863716733495E7 ; 1.2095333412230287E9 ; 1.2073787697964635E9 ; 1.2298871434329636E11 ; 0.0
111 ; 1.1907629868503606E7 ; 1.209594237500042E9 ; 1.219295633513197E9 ; 1.2419824768451938E11 ; 0.0
112 ; 1.1894049068591917E7 ; 1.2096550962242537E9 ; 1.2312032633817005E9 ; 1.2540784192201942E11 ; 0.0
113 ; 1.188362300962429E7 ; 1.209715913680595E9 ; 1.2430973124502923E9 ; 1.2661749701824368E11 ; 0.0
114 ; 1.1876382890921704E7 ; 1.2097766862344527E9 ; 1.2549809354599166E9 ; 1.2782721293192427E11 ; 0.0
115 ; 1.1865859769306067E7 ; 1.2098374103287768E9 ; 1.2668573183508382E9 ; 1.2903698961815872E11 ; 0.0
116 ; 1.185044415067461E7 ; 1.2098980824813104E9 ; 1.2787231781201444E9 ; 1.302468270284875E11 ; 0.0
117 ; 1.1833204625544315E7 ; 1.209958699281938E9 ; 1.290573622270819E9 ; 1.3145672511096881E11 ; 0.0
118 ; 1.1825092485515764E7 ; 1.2100192573901465E9 ; 1.3024068268963633E9 ; 1.3266668381025075E11 ; 0.0
119 ; 1.1810204825104397E7 ; 1.2100797535325918E9 ; 1.314231919381879E9 ; 1.338767030676409E11 ; 0.0
120 ; 1.1796616135330372E7 ; 1.2101401845007687E9 ; 1.3260421242069836E9 ; 1.350867828211735E11 ; 0.0
121 ; 1.1784413025076894E7 ; 1.210200547148778E9 ; 1.337838740342314E9 ; 1.3629692300567426E11 ; 0.0
122 ; 1.1767034734869726E7 ; 1.2102608383911867E9 ; 1.3496231533673909E9 ; 1.3750712355282303E11 ; 0.0
123 ; 1.1745209172492253E7 ; 1.2103210552009788E9 ; 1.3613901881022606E9 ; 1.387173843912142E11 ; 0.0
124 ; 1.1735264292342609E7 ; 1.2103811946075864E9 ; 1.3731353972747529E9 ; 1.399277054464152E11 ; 0.0
125 ; 1.171886422611668E7 ; 1.2104412536950088E9 ; 1.3848706615670955E9 ; 1.4113808664102277E11 ; 0.0
126 ; 1.169899145663464E7 ; 1.2105012296000023E9 ; 1.3965895257932122E9 ; 1.4234852789471777E11 ; 0.0
127 ; 1.169095909383316E7 ; 1.2105611195103486E9 ; 1.408288517249847E9 ; 1.4355902912431778E11 ; 0.0
128 ; 1.1674418973576708E7 ; 1.2106209206631932E9 ; 1.4199794763436801E9 ; 1.4476959024382812E11 ; 0.0
129 ; 1.1660446928447776E7 ; 1.2106806303434486E9 ; 1.431653895317257E9 ; 1.4598021116449133E11 ; 0.0
130 ; 1.1637699672199847E7 ; 1.210740245882266E9 ; 1.4433143422457047E9 ; 1.4719089179483478E11 ; 0.0
131 ; 1.1602918498206973E7 ; 1.210799764655566E9 ; 1.4549520419179046E9 ; 1.4840163204071704E11 ; 0.0
132 ; 1.1576412872991916E7 ; 1.2108591840826287E9 ; 1.4665549604161115E9 ; 1.4961243180537262E11 ; 0.0
133 ; 1.154454526148113E7 ; 1.2109185016247416E9 ; 1.4781313732891033E9 ; 1.5082329098945526E11 ; 0.0
134 ; 1.152187017851946E7 ; 1.2109777147839E9 ; 1.4896759185505843E9 ; 1.5203420949108002E11 ; 0.0
135 ; 1.1485417142582461E7 ; 1.21103682110156E9 ; 1.5011977887291038E9 ; 1.5324518720586392E11 ; 0.0
136 ; 1.1443704567431862E7 ; 1.2110958181574407E9 ; 1.5126832058716862E9 ; 1.5445622402696548E11 ; 0.0
137 ; 1.1417518051856792E7 ; 1.2111547035683706E9 ; 1.5241269104391181E9 ; 1.5566731984512292E11 ; 0.0
138 ; 1.1387328763995206E7 ; 1.2112134749871864E9 ; 1.535544428490975E9 ; 1.5687847454869128E11 ; 0.0
139 ; 1.1353533149647947E7 ; 1.2112721301016665E9 ; 1.54693175725497E9 ; 1.5808968802367847E11 ; 0.0
140 ; 1.1315805429181423E7 ; 1.2113306666335115E9 ; 1.558285290404618E9 ; 1.5930096015378012E11 ; 0.0
141 ; 1.1286385539682792E7 ; 1.211389082337364E9 ; 1.5696010958337994E9 ; 1.6051229082041364E11 ; 0.0
142 ; 1.1254615065152125E7 ; 1.2114473749998617E9 ; 1.5808874813734822E9 ; 1.61723679902751E11 ; 0.0
143 ; 1.1223875272121139E7 ; 1.211505542438734E9 ; 1.5921420964386344E9 ; 1.6293512727775085E11 ; 0.0
144 ; 1.1182814585026734E7 ; 1.211563582501926E9 ; 1.6033659717107556E9 ; 1.6414663282018958E11 ; 0.0
145 ; 1.1169001165665459E7 ; 1.2116214930667622E9 ; 1.6145487862957823E9 ; 1.653581964026915E11 ; 0.0
146 ; 1.1154789422898723E7 ; 1.2116792720391371E9 ; 1.6257177874614477E9 ; 1.6656981789575827E11 ; 0.0
147 ; 1.1132665930409167E7 ; 1.21173691735274E9 ; 1.6368725768843465E9 ; 1.677814971677974E11 ; 0.0
148 ; 1.112047897604531E7 ; 1.2117944269683068E9 ; 1.6480052428147557E9 ; 1.6899323408515015E11 ; 0.0
149 ; 1.1100030593168348E7 ; 1.2118517988729014E9 ; 1.659125721790801E9 ; 1.7020502851211844E11 ; 0.0
150 ; 1.1086785848597072E7 ; 1.2119090310792234E9 ; 1.6702257523839693E9 ; 1.7141688031099133E11 ; 0.0
151 ; 1.1072073085167635E7 ; 1.2119661216249409E9 ; 1.6813125382325664E9 ; 1.7262878934207056E11 ; 0.0
152 ; 1.104082293469024E7 ; 1.2120230685720491E9 ; 1.692384611317734E9 ; 1.738407554636955E11 ; 0.0
153 ; 1.1038271560116656E7 ; 1.2120798700062537E9 ; 1.7034254342524242E9 ; 1.7505277853226755E11 ; 0.0
154 ; 1.1013393047894586E7 ; 1.2121365240363739E9 ; 1.714463705812541E9 ; 1.762648584022738E11 ; 0.0
155 ; 1.0998820578428121E7 ; 1.2121930287937706E9 ; 1.7254770988604355E9 ; 1.7747699492631018E11 ; 0.0
156 ; 1.0982824324552447E7 ; 1.2122493824317932E9 ; 1.7364759194388635E9 ; 1.7868918795510394E11 ; 0.0
157 ; 1.0968461806684524E7 ; 1.212305583125249E9 ; 1.747458743763416E9 ; 1.7990143733753574E11 ; 0.0
158 ; 1.0952006333284847E7 ; 1.2123616290698884E9 ; 1.7584272055701005E9 ; 1.8111374292066098E11 ; 0.0
159 ; 1.0921574892028322E7 ; 1.2124175184819126E9 ; 1.7693792119033854E9 ; 1.8232610454973087E11 ; 0.0
160 ; 1.0915852840064567E7 ; 1.2124732495974972E9 ; 1.7803007867954137E9 ; 1.8353852206821277E11 ; 0.0
161 ; 1.0895981100178499E7 ; 1.2125288206723318E9 ; 1.7912166396354783E9 ; 1.8475099531781027E11 ; 0.0
162 ; 1.0868673298144013E7 ; 1.2125842299811788E9 ; 1.8021126207356567E9 ; 1.859635241384826E11 ; 0.0
163 ; 1.0856116629156051E7 ; 1.2126394758174455E9 ; 1.8129812940338008E9 ; 1.8717610836846378E11 ; 0.0
164 ; 1.0835011183838945E7 ; 1.2126945564927735E9 ; 1.823837410662957E9 ; 1.8838874784428122E11 ; 0.0
165 ; 1.0817941370003013E7 ; 1.2127494703366408E9 ; 1.8346724218467958E9 ; 1.89601442400774E11 ; 0.0
166 ; 1.0798277892548127E7 ; 1.2128042156959796E9 ; 1.8454903632167988E9 ; 1.9081419187111063E11 ; 0.0
167 ; 1.078360949177447E7 ; 1.2128587909348063E9 ; 1.8562886411093469E9 ; 1.920269960868066E11 ; 0.0
168 ; 1.0768392930589406E7 ; 1.2129131944338655E9 ; 1.8670722506011214E9 ; 1.9323985487774142E11 ; 0.0
169 ; 1.0743597275308298E7 ; 1.2129674245902865E9 ; 1.8778406435317109E9 ; 1.944527680721753E11 ; 0.0
170 ; 1.0724921287205424E7 ; 1.213021479817249E9 ; 1.8885842408070192E9 ; 1.956657354967656E11 ; 0.0
171 ; 1.0707632883397616E7 ; 1.2130753585436666E9 ; 1.8993091620942247E9 ; 1.9687875697658286E11 ; 0.0
172 ; 1.0694970053672783E7 ; 1.2131290592138746E9 ; 1.9100167949776223E9 ; 1.9809183233512653E11 ; 0.0
173 ; 1.0669174945865007E7 ; 1.2131825802873316E9 ; 1.920711765031295E9 ; 1.993049613943404E11 ; 0.0
174 ; 1.0662746835180629E7 ; 1.2132359202383342E9 ; 1.93138093997716E9 ; 2.0051814397462772E11 ; 0.0
175 ; 1.0643771850225061E7 ; 1.2132890775557346E9 ; 1.9420436868123405E9 ; 2.0173137989486606E11 ; 0.0
176 ; 1.0634863452917922E7 ; 1.2133420507426755E9 ; 1.9526874586625655E9 ; 2.0294466897242178E11 ; 0.0
177 ; 1.0619707710907687E7 ; 1.2133948383163276E9 ; 1.9633223221154833E9 ; 2.0415801102316446E11 ; 0.0
178 ; 1.0609972046923643E7 ; 1.2134474388076415E9 ; 1.973942029826391E9 ; 2.0537140586148077E11 ; 0.0
179 ; 1.0589304224125475E7 ; 1.2134998507611046E9 ; 1.9845520018733146E9 ; 2.0658485330028842E11 ; 0.0
180 ; 1.0585464559355356E7 ; 1.2135520727345057E9 ; 1.99514130609744E9 ; 2.0779835315104953E11 ; 0.0
181 ; 1.0571862110272259E7 ; 1.2136041032987115E9 ; 2.0057267706567953E9 ; 2.0901190522378403E11 ; 0.0
182 ; 1.0552665434770983E7 ; 1.2136559410374475E9 ; 2.0162986327670674E9 ; 2.1022550932708273E11 ; 0.0
183 ; 1.0542085635557462E7 ; 1.213707584547086E9 ; 2.0268512982018385E9 ; 2.1143916526812018E11 ; 0.0
184 ; 1.0528786152071852E7 ; 1.2137590324364436E9 ; 2.037393383837396E9 ; 2.1265287285266727E11 ; 0.0
185 ; 1.051625495326969E7 ; 1.2138102833265827E9 ; 2.0479221699894679E9 ; 2.138666318851037E11 ; 0.0
186 ; 1.0502447971729117E7 ; 1.2138613358506231E9 ; 2.0584384249427376E9 ; 2.1508044216843027E11 ; 0.0
187 ; 1.0490907051344236E7 ; 1.2139121886535556E9 ; 2.0689408729144666E9 ; 2.1629430350428088E11 ; 0.0
188 ; 1.0467886283355337E7 ; 1.2139628403920665E9 ; 2.0794317799658108E9 ; 2.1750821569293445E11 ; 0.0
189 ; 1.04608507059347E7 ; 1.2140132897343636E9 ; 2.089899666249166E9 ; 2.187221785333265E11 ; 0.0
190 ; 1.045071459340936E7 ; 1.2140635353600109E9 ; 2.1003605169551008E9 ; 2.1993619182306088E11 ; 0.0
191 ; 1.043615090872632E7 ; 1.2141135759597673E9 ; 2.11081123154851E9 ; 2.211502553584209E11 ; 0.0
192 ; 1.0420802934365911E7 ; 1.2141634102354321E9 ; 2.1212473824572363E9 ; 2.2236436893438068E11 ; 0.0
193 ; 1.0404958845656712E7 ; 1.2142130368996935E9 ; 2.1316681853916023E9 ; 2.2357853234461612E11 ; 0.0
194 ; 1.0395712345012706E7 ; 1.214262454675984E9 ; 2.142073144237259E9 ; 2.247927453815158E11 ; 0.0
195 ; 1.0386258770384613E7 ; 1.2143116622983391E9 ; 2.1524688565822716E9 ; 2.260070078361918E11 ; 0.0
