CSV File for the Network on Day 365
1 - Minute m 
2 - Power Consumed at minute m 
3 - Power Produced at minute m 
4 - Energy Consumed since the beginning of the day 
5 - Energy Produced since the beginning of the day 
6 - Energy Lost since the beginning of the day 
 
0 ; 3.848016217453876E7 ; 6.335681652910558E8 ; 0.0 ; 0.0 ; 0.0
1 ; 3.851090974103378E7 ; 6.344764373239996E8 ; 3.848016217453876E7 ; 6.335681652910558E8 ; 0.0
2 ; 3.855340122187099E7 ; 6.372383129396373E8 ; 7.699107191557254E7 ; 1.2680446026150556E9 ; 0.0
3 ; 3.859983347616349E7 ; 6.418538261004508E8 ; 1.1554447313744353E8 ; 1.9052829155546927E9 ; 0.0
4 ; 3.865855237825924E7 ; 6.48323007661035E8 ; 1.5414430661360702E8 ; 2.5471367416551437E9 ; 0.0
5 ; 3.8730209850633934E7 ; 6.566458850618081E8 ; 1.9280285899186626E8 ; 3.195459749316179E9 ; 0.0
6 ; 3.881510057269181E7 ; 6.668224820466267E8 ; 2.315330688425002E8 ; 3.852105634377987E9 ; 0.0
7 ; 3.8945885126682594E7 ; 6.78852818410788E8 ; 2.70348169415192E8 ; 4.518928116424614E9 ; 0.0
8 ; 3.913479810699242E7 ; 6.927369097854699E8 ; 3.092940545418746E8 ; 5.197780934835402E9 ; 0.0
9 ; 3.941360263285179E7 ; 7.084747674639764E8 ; 3.48428852648867E8 ; 5.890517844620872E9 ; 0.0
10 ; 3.9848038944739535E7 ; 7.260663982742534E8 ; 3.878424552817188E8 ; 6.598992612084848E9 ; 0.0
11 ; 4.053840124376852E7 ; 7.455118045010134E8 ; 4.276904942264583E8 ; 7.325059010359102E9 ; 0.0
12 ; 4.164447459281031E7 ; 7.66810983859544E8 ; 4.682288954702268E8 ; 8.070570814860116E9 ; 0.0
13 ; 4.270612380181648E7 ; 7.89963929521899E8 ; 5.0987337006303716E8 ; 8.83738179871966E9 ; 0.0
14 ; 4.282961123510194E7 ; 8.149706301947749E8 ; 5.525794938648536E8 ; 9.627345728241558E9 ; 0.0
15 ; 4.2882888735732436E7 ; 8.418310702469932E8 ; 5.954091050999556E8 ; 1.0442316358436333E10 ; 0.0
16 ; 4.292653764086659E7 ; 8.705452298832572E8 ; 6.38291993835688E8 ; 1.1284147428683327E10 ; 0.0
17 ; 4.297656598451808E7 ; 9.011130853597101E8 ; 6.812185314765546E8 ; 1.2154692658566584E10 ; 0.0
18 ; 4.303070191911328E7 ; 9.335346092359338E8 ; 7.241950974610727E8 ; 1.3055805743926294E10 ; 0.0
19 ; 4.30845431883838E7 ; 9.678097706573329E8 ; 7.67225799380186E8 ; 1.3989340353162228E10 ; 0.0
20 ; 4.313596167382345E7 ; 1.003938535661426E9 ; 8.103103425685698E8 ; 1.4957150123819561E10 ; 0.0
21 ; 4.318378585610403E7 ; 1.0419208675013885E9 ; 8.534463042423933E8 ; 1.5961088659480988E10 ; 0.0
22 ; 4.3230266810774006E7 ; 1.081756726980261E9 ; 8.966300900984973E8 ; 1.7003009526982376E10 ; 0.0
23 ; 4.328210972228194E7 ; 1.1234460727894998E9 ; 9.398603569092712E8 ; 1.808476625396264E10 ; 0.0
24 ; 4.333340742129821E7 ; 1.1669888618460143E9 ; 9.831424666315532E8 ; 1.920821232675214E10 ; 0.0
25 ; 4.337781553966169E7 ; 1.2045132950115323E9 ; 1.0264758740528514E9 ; 2.0375201188598156E10 ; 0.0
26 ; 4.342776194716194E7 ; 1.2045406136328843E9 ; 1.0698536895925131E9 ; 2.1579714483609688E10 ; 0.0
27 ; 4.3477350923401184E7 ; 1.2045693869951684E9 ; 1.113281451539675E9 ; 2.2784255097242573E10 ; 0.0
28 ; 4.352906003328383E7 ; 1.2045995680879102E9 ; 1.156758802463076E9 ; 2.398882448423774E10 ; 0.0
29 ; 4.358124320953301E7 ; 1.2046311096295514E9 ; 1.2002878624963598E9 ; 2.519342405232565E10 ; 0.0
30 ; 4.361870085554592E7 ; 1.2046639643103817E9 ; 1.2438691057058928E9 ; 2.63980551619552E10 ; 0.0
31 ; 4.366652348447433E7 ; 1.2046980850124717E9 ; 1.2874878065614388E9 ; 2.7602719126265583E10 ; 0.0
32 ; 4.370747261708185E7 ; 1.2047334250062702E9 ; 1.3311543300459132E9 ; 2.8807417211278053E10 ; 0.0
33 ; 4.3754428547874525E7 ; 1.2047699381240396E9 ; 1.374861802662995E9 ; 3.0012150636284325E10 ; 0.0
34 ; 4.379634742846408E7 ; 1.2048075789107134E9 ; 1.4186162312108696E9 ; 3.1216920574408363E10 ; 0.0
35 ; 4.3842441574288234E7 ; 1.2048463027531002E9 ; 1.4624125786393337E9 ; 3.2421728153319077E10 ; 0.0
36 ; 4.387471332075545E7 ; 1.2048860659886065E9 ; 1.5062550202136219E9 ; 3.3626574456072178E10 ; 0.0
37 ; 4.391497736568876E7 ; 1.2049268259948478E9 ; 1.5501297335343773E9 ; 3.483146052206078E10 ; 0.0
38 ; 4.395281658365025E7 ; 1.204968541261622E9 ; 1.5940447109000661E9 ; 3.603638734805563E10 ; 0.0
39 ; 4.3990335505546615E7 ; 1.2050111714467888E9 ; 1.6379975274837165E9 ; 3.724135588931725E10 ; 0.0
40 ; 4.40247736900415E7 ; 1.2050546774176302E9 ; 1.681987862989263E9 ; 3.844636706076404E10 ; 0.0
41 ; 4.405445409183407E7 ; 1.2050990212792225E9 ; 1.7260126366793046E9 ; 3.965142173818167E10 ; 0.0
42 ; 4.408192756629732E7 ; 1.205144166391331E9 ; 1.7700670907711387E9 ; 4.085652075946089E10 ; 0.0
43 ; 4.4113621501328856E7 ; 1.205190077375246E9 ; 1.814149018337436E9 ; 4.206166492585223E10 ; 0.0
44 ; 4.413775359297831E7 ; 1.2052367201119049E9 ; 1.858262639838765E9 ; 4.326685500322747E10 ; 0.0
45 ; 4.416558433157542E7 ; 1.2052840617325478E9 ; 1.9024003934317431E9 ; 4.447209172333938E10 ; 0.0
46 ; 4.418727429487927E7 ; 1.2053320706030483E9 ; 1.9465659777633185E9 ; 4.567737578507193E10 ; 0.0
47 ; 4.4200926621962786E7 ; 1.2053807163029628E9 ; 1.9907532520581977E9 ; 4.688270785567498E10 ; 0.0
48 ; 4.422672270835319E7 ; 1.2054299696002345E9 ; 2.0349541786801605E9 ; 4.808808857197794E10 ; 0.0
49 ; 4.4242078400300466E7 ; 1.2054798024223914E9 ; 2.0791809013885138E9 ; 4.929351854157818E10 ; 0.0
50 ; 4.425824594720103E7 ; 1.205530187824979E9 ; 2.1234229797888143E9 ; 5.049899834400057E10 ; 0.0
51 ; 4.426595058569012E7 ; 1.2055810999578865E9 ; 2.1676812257360153E9 ; 5.1704528531825554E10 ; 0.0
52 ; 4.4276045480370134E7 ; 1.2056325140301273E9 ; 2.2119471763217053E9 ; 5.291010963178344E10 ; 0.0
53 ; 4.42903328562533E7 ; 1.2056844062735772E9 ; 2.2562232218020754E9 ; 5.411574214581357E10 ; 0.0
54 ; 4.43079743380928E7 ; 1.2057367539060867E9 ; 2.3005135546583285E9 ; 5.532142655208714E10 ; 0.0
55 ; 4.431746389503323E7 ; 1.2057895350943332E9 ; 2.3448215289964213E9 ; 5.652716330599323E10 ; 0.0
56 ; 4.433125691724987E7 ; 1.2058427289167132E9 ; 2.3891389928914547E9 ; 5.773295284108756E10 ; 0.0
57 ; 4.4343667821100965E7 ; 1.2058963153265352E9 ; 2.4334702498087044E9 ; 5.893879557000427E10 ; 0.0
58 ; 4.4356170680698834E7 ; 1.2059502751157167E9 ; 2.4778139176298056E9 ; 6.014469188533081E10 ; 0.0
59 ; 4.436192920025331E7 ; 1.206004589879161E9 ; 2.5221700883105044E9 ; 6.1350642160446526E10 ; 0.0
60 ; 4.436741055635741E7 ; 1.2060592419799495E9 ; 2.566532017510758E9 ; 6.255664675032568E10 ; 0.0
61 ; 4.437467576005617E7 ; 1.2061142145154593E9 ; 2.6108994280671153E9 ; 6.376270599230563E10 ; 0.0
62 ; 4.4389560718978636E7 ; 1.206169491284483E9 ; 2.6552741038271713E9 ; 6.496882020682109E10 ; 0.0
63 ; 4.439506693660171E7 ; 1.2062250567554188E9 ; 2.6996636645461497E9 ; 6.6174989698105576E10 ; 0.0
64 ; 4.440472430870029E7 ; 1.2062808960355668E9 ; 2.7440587314827514E9 ; 6.738121475486099E10 ; 0.0
65 ; 4.440703416455036E7 ; 1.20633699484156E9 ; 2.7884634557914515E9 ; 6.858749565089656E10 ; 0.0
66 ; 4.4412666740865126E7 ; 1.2063933394709432E9 ; 2.8328704899560018E9 ; 6.979383264573811E10 ; 0.0
67 ; 4.442485808994018E7 ; 1.206449916774901E9 ; 2.877283156696867E9 ; 7.100022598520906E10 ; 0.0
68 ; 4.442634698164478E7 ; 1.2065067141321273E9 ; 2.921708014786807E9 ; 7.220667590198396E10 ; 0.0
69 ; 4.4437072887920216E7 ; 1.2065637194238238E9 ; 2.9661343617684517E9 ; 7.341318261611609E10 ; 0.0
70 ; 4.443646810678276E7 ; 1.2066209210098019E9 ; 3.010571434656372E9 ; 7.461974633553992E10 ; 0.0
71 ; 4.444068179047916E7 ; 1.206678307705671E9 ; 3.055007902763155E9 ; 7.582636725654971E10 ; 0.0
72 ; 4.4453026541003615E7 ; 1.2067358687610729E9 ; 3.099448584553634E9 ; 7.703304556425539E10 ; 0.0
73 ; 4.4446842491923004E7 ; 1.2067935938389416E9 ; 3.143901611094638E9 ; 7.823978143301646E10 ; 0.0
74 ; 4.445664422969622E7 ; 1.2068514729957457E9 ; 3.1883484535865607E9 ; 7.944657502685541E10 ; 0.0
75 ; 4.446201306652607E7 ; 1.2069094966626832E9 ; 3.232805097816257E9 ; 8.065342649985115E10 ; 0.0
76 ; 4.446185162421196E7 ; 1.2069676556277907E9 ; 3.277267110882783E9 ; 8.186033599651384E10 ; 0.0
77 ; 4.447081266426089E7 ; 1.2070259410189292E9 ; 3.3217289625069947E9 ; 8.306730365214163E10 ; 0.0
78 ; 4.445790002763692E7 ; 1.2070843442876117E9 ; 3.3661997751712556E9 ; 8.427432959316057E10 ; 0.0
79 ; 4.4444535027741656E7 ; 1.2071428571936362E9 ; 3.4106576751988926E9 ; 8.548141393744818E10 ; 0.0
80 ; 4.443175660976225E7 ; 1.2072014717904854E9 ; 3.455102210226634E9 ; 8.668855679464182E10 ; 0.0
81 ; 4.442191048625696E7 ; 1.2072601804114609E9 ; 3.499533966836396E9 ; 8.78957582664323E10 ; 0.0
82 ; 4.4411084449846044E7 ; 1.2073189756565175E9 ; 3.5439558773226533E9 ; 8.910301844684375E10 ; 0.0
83 ; 4.439643840516477E7 ; 1.2073778503797598E9 ; 3.5883669617724996E9 ; 9.031033742250027E10 ; 0.0
84 ; 4.4380727410486214E7 ; 1.207436797677576E9 ; 3.6327634001776643E9 ; 9.151771527288004E10 ; 0.0
85 ; 4.436895952186415E7 ; 1.2074958108773694E9 ; 3.6771441275881505E9 ; 9.272515207055762E10 ; 0.0
86 ; 4.4352082328931734E7 ; 1.2075548835268667E9 ; 3.7215130871100144E9 ; 9.393264788143498E10 ; 0.0
87 ; 4.433147761007934E7 ; 1.207614009383965E9 ; 3.7658651694389462E9 ; 9.514020276496185E10 ; 0.0
88 ; 4.432588608889458E7 ; 1.2076731824070964E9 ; 3.8101966470490255E9 ; 9.634781677434583E10 ; 0.0
89 ; 4.430616546136315E7 ; 1.2077323967460814E9 ; 3.85452253313792E9 ; 9.755548995675291E10 ; 0.0
90 ; 4.429063451682186E7 ; 1.2077916467334461E9 ; 3.898828698599283E9 ; 9.8763222353499E10 ; 0.0
91 ; 4.426753025051258E7 ; 1.2078509268761778E9 ; 3.943119333116105E9 ; 9.997101400023244E10 ; 0.0
92 ; 4.4258056382186025E7 ; 1.2079102318478994E9 ; 3.9873868633666177E9 ; 1.0117886492710861E11 ; 0.0
93 ; 4.42397523639561E7 ; 1.2079695564814365E9 ; 4.0316449197488036E9 ; 1.0238677515895651E11 ; 0.0
94 ; 4.422830103845598E7 ; 1.2080288957617598E9 ; 4.0758846721127596E9 ; 1.0359474471543794E11 ; 0.0
95 ; 4.420337940090497E7 ; 1.208088244819281E9 ; 4.1201129731512156E9 ; 1.048027736111997E11 ; 0.0
96 ; 4.418245827830021E7 ; 1.2081475989234872E9 ; 4.1643163525521207E9 ; 1.0601086185601898E11 ; 0.0
97 ; 4.417047043407396E7 ; 1.2082069534768882E9 ; 4.208498810830421E9 ; 1.0721900945494247E11 ; 0.0
98 ; 4.4152314827666536E7 ; 1.2082663040092692E9 ; 4.252669281264495E9 ; 1.0842721640841936E11 ; 0.0
99 ; 4.413073183418309E7 ; 1.208325646172227E9 ; 4.296821596092161E9 ; 1.0963548271242862E11 ; 0.0
100 ; 4.410976790093989E7 ; 1.208384975733976E9 ; 4.340952327926344E9 ; 1.1084380835860085E11 ; 0.0
101 ; 4.40890137020614E7 ; 1.2084442885744114E9 ; 4.385062095827284E9 ; 1.1205219333433482E11 ; 0.0
102 ; 4.4070801511535585E7 ; 1.2085035806804132E9 ; 4.4291511095293455E9 ; 1.1326063762290924E11 ; 0.0
103 ; 4.4044627894552246E7 ; 1.2085628481413808E9 ; 4.473221911040881E9 ; 1.1446914120358966E11 ; 0.0
104 ; 4.402454513705733E7 ; 1.2086220871449828E9 ; 4.517266538935433E9 ; 1.1567770405173105E11 ; 0.0
105 ; 4.400503799055245E7 ; 1.2086812939731174E9 ; 4.561291084072491E9 ; 1.1688632613887604E11 ; 0.0
106 ; 4.398172209105401E7 ; 1.208740464998063E9 ; 4.605296122063044E9 ; 1.1809500743284915E11 ; 0.0
107 ; 4.395050058989738E7 ; 1.208799596678817E9 ; 4.649277844154098E9 ; 1.1930374789784721E11 ; 0.0
108 ; 4.393228897214307E7 ; 1.2088586855576077E9 ; 4.693228344743995E9 ; 1.2051254749452603E11 ; 0.0
109 ; 4.391011283114955E7 ; 1.208917728256575E9 ; 4.737160633716138E9 ; 1.2172140618008363E11 ; 0.0
110 ; 4.3887736109975725E7 ; 1.2089767214746058E9 ; 4.781070746547287E9 ; 1.2293032390834021E11 ; 0.0
111 ; 4.385915579406706E7 ; 1.2090356619843209E9 ; 4.824958482657263E9 ; 1.2413930062981482E11 ; 0.0
112 ; 4.383821550835942E7 ; 1.209094546629202E9 ; 4.86881763845133E9 ; 1.2534833629179913E11 ; 0.0
113 ; 4.3814059839242935E7 ; 1.2091533723208547E9 ; 4.912655853959689E9 ; 1.2655743083842833E11 ; 0.0
114 ; 4.3790018695235014E7 ; 1.209212136036398E9 ; 4.956469913798932E9 ; 1.2776658421074919E11 ; 0.0
115 ; 4.3757100328395024E7 ; 1.2092708348159745E9 ; 5.000259932494167E9 ; 1.2897579634678558E11 ; 0.0
116 ; 4.372327973054024E7 ; 1.2093294657603765E9 ; 5.044017032822562E9 ; 1.3018506718160156E11 ; 0.0
117 ; 4.3707076465475306E7 ; 1.20938802602878E9 ; 5.0877403125531025E9 ; 1.3139439664736194E11 ; 0.0
118 ; 4.367613871990208E7 ; 1.2094465128365827E9 ; 5.131447389018578E9 ; 1.3260378467339072E11 ; 0.0
119 ; 4.365160412724605E7 ; 1.2095049234533405E9 ; 5.17512352773848E9 ; 1.338132311862273E11 ; 0.0
120 ; 4.361509821659117E7 ; 1.2095632552007976E9 ; 5.2187751318657255E9 ; 1.3502273610968063E11 ; 0.0
121 ; 4.359356201224795E7 ; 1.209621505451003E9 ; 5.262390230082316E9 ; 1.3623229936488142E11 ; 0.0
122 ; 4.355751225839017E7 ; 1.2096796716245162E9 ; 5.305983792094564E9 ; 1.3744192087033243E11 ; 0.0
123 ; 4.353107570096514E7 ; 1.2097377511886876E9 ; 5.349541304352955E9 ; 1.3865160054195694E11 ; 0.0
124 ; 4.350587620466288E7 ; 1.2097957416560175E9 ; 5.39307238005392E9 ; 1.3986133829314563E11 ; 0.0
125 ; 4.347071933570793E7 ; 1.2098536405825894E9 ; 5.436578256258583E9 ; 1.4107113403480164E11 ; 0.0
126 ; 4.344134449375076E7 ; 1.2099114455665684E9 ; 5.480048975594291E9 ; 1.4228098767538422E11 ; 0.0
127 ; 4.341033866740508E7 ; 1.2099691542467685E9 ; 5.523490320088041E9 ; 1.4349089912095078E11 ; 0.0
128 ; 4.3377348687962055E7 ; 1.2100267643012805E9 ; 5.566900658755446E9 ; 1.4470086827519754E11 ; 0.0
129 ; 4.334549975127445E7 ; 1.2100842734461584E9 ; 5.610278007443409E9 ; 1.459108950394988E11 ; 0.0
130 ; 4.330559085457049E7 ; 1.210141679434167E9 ; 5.653623507194683E9 ; 1.4712097931294498E11 ; 0.0
131 ; 4.325847396865426E7 ; 1.2101989800535755E9 ; 5.696929098049253E9 ; 1.4833112099237915E11 ; 0.0
132 ; 4.3213414401609406E7 ; 1.2102561731270113E9 ; 5.740187572017908E9 ; 1.4954131997243274E11 ; 0.0
133 ; 4.316336631762312E7 ; 1.2103132565103552E9 ; 5.7834009864195175E9 ; 1.5075157614555975E11 ; 0.0
134 ; 4.312033184307849E7 ; 1.210370228091688E9 ; 5.826564352737141E9 ; 1.519618894020701E11 ; 0.0
135 ; 4.307498264662661E7 ; 1.2104270857902782E9 ; 5.869684684580219E9 ; 1.5317225963016177E11 ; 0.0
136 ; 4.302394852804434E7 ; 1.2104838275556154E9 ; 5.912759667226846E9 ; 1.5438268671595206E11 ; 0.0
137 ; 4.297672746760349E7 ; 1.210540451366481E9 ; 5.95578361575489E9 ; 1.5559317054350766E11 ; 0.0
138 ; 4.292425676094435E7 ; 1.2105969552300587E9 ; 5.998760343222494E9 ; 1.5680371099487415E11 ; 0.0
139 ; 4.286874288202467E7 ; 1.2106533371810818E9 ; 6.0416845999834385E9 ; 1.5801430795010422E11 ; 0.0
140 ; 4.283212797063038E7 ; 1.2107095952810156E9 ; 6.084553342865463E9 ; 1.592249612872853E11 ; 0.0
141 ; 4.277928830571154E7 ; 1.2107657276172733E9 ; 6.127385470836094E9 ; 1.604356708825663E11 ; 0.0
142 ; 4.273145534780978E7 ; 1.2108217323024626E9 ; 6.170164759141806E9 ; 1.616464366101836E11 ; 0.0
143 ; 4.2673961375753835E7 ; 1.2108776074736645E9 ; 6.212896214489615E9 ; 1.6285725834248605E11 ; 0.0
144 ; 4.262249014057036E7 ; 1.2109333512917414E9 ; 6.255570175865369E9 ; 1.6406813594995972E11 ; 0.0
145 ; 4.2592705088972725E7 ; 1.2109889619406695E9 ; 6.2981926660059395E9 ; 1.6527906930125146E11 ; 0.0
146 ; 4.2559959202532016E7 ; 1.2110444376269045E9 ; 6.340785371094913E9 ; 1.6649005826319214E11 ; 0.0
147 ; 4.2528552251582235E7 ; 1.211099776578765E9 ; 6.383345330297444E9 ; 1.6770110270081903E11 ; 0.0
148 ; 4.2486660075882986E7 ; 1.2111549770458453E9 ; 6.4258738825490265E9 ; 1.689122024773978E11 ; 0.0
149 ; 4.244972744230041E7 ; 1.211210037298451E9 ; 6.468360542624909E9 ; 1.7012335745444363E11 ; 0.0
150 ; 4.241315911707118E7 ; 1.2112649556270547E9 ; 6.51081027006721E9 ; 1.713345674917421E11 ; 0.0
151 ; 4.2380457172883384E7 ; 1.211319730341775E9 ; 6.553223429184281E9 ; 1.7254583244736914E11 ; 0.0
152 ; 4.2349244572166026E7 ; 1.211374359771874E9 ; 6.595603886357164E9 ; 1.737571521777109E11 ; 0.0
153 ; 4.23086697934563E7 ; 1.211428842265276E9 ; 6.637953130929331E9 ; 1.749685265374828E11 ; 0.0
154 ; 4.2266302784884796E7 ; 1.2114831761881046E9 ; 6.680261800722787E9 ; 1.7617995537974808E11 ; 0.0
155 ; 4.22334064549928E7 ; 1.2115373599242368E9 ; 6.722528103507671E9 ; 1.773914385559362E11 ; 0.0
156 ; 4.219558414189406E7 ; 1.2115913918748736E9 ; 6.764761509962665E9 ; 1.786029759158604E11 ; 0.0
157 ; 4.2165995666966744E7 ; 1.2116452704581301E9 ; 6.806957094104559E9 ; 1.798145673077353E11 ; 0.0
158 ; 4.2130558730223134E7 ; 1.2116989941086373E9 ; 6.849123089771525E9 ; 1.8102621257819342E11 ; 0.0
159 ; 4.2084042757229805E7 ; 1.211752561277162E9 ; 6.891253648501748E9 ; 1.8223791157230206E11 ; 0.0
160 ; 4.204772965784807E7 ; 1.2118059704302394E9 ; 6.933337691258978E9 ; 1.8344966413357922E11 ; 0.0
161 ; 4.2016557747838005E7 ; 1.2118592200498204E9 ; 6.975385420916826E9 ; 1.8466147010400946E11 ; 0.0
162 ; 4.197696084648137E7 ; 1.2119123086329317E9 ; 7.017401978664664E9 ; 1.858733293240593E11 ; 0.0
163 ; 4.1945190804528594E7 ; 1.2119652346913483E9 ; 7.059378939511146E9 ; 1.8708524163269223E11 ; 0.0
164 ; 4.189576616974293E7 ; 1.2120179967512796E9 ; 7.101324130315674E9 ; 1.8829720686738358E11 ; 0.0
165 ; 4.186497011686033E7 ; 1.2120705933530655E9 ; 7.143219896485416E9 ; 1.8950922486413486E11 ; 0.0
166 ; 4.1825042203133464E7 ; 1.2121230230508847E9 ; 7.185084866602277E9 ; 1.907212954574879E11 ; 0.0
167 ; 4.17859865505584E7 ; 1.2121752844124737E9 ; 7.22690990880541E9 ; 1.919334184805388E11 ; 0.0
168 ; 4.1750297965249084E7 ; 1.2122273760188549E9 ; 7.268695895355968E9 ; 1.9314559376495126E11 ; 0.0
169 ; 4.170488787331588E7 ; 1.2122792964640777E9 ; 7.310446193321218E9 ; 1.9435782114097012E11 ; 0.0
170 ; 4.1670864014154285E7 ; 1.2123310443549657E9 ; 7.352151081194533E9 ; 1.955701004374342E11 ; 0.0
171 ; 4.163102705110861E7 ; 1.2123826183108745E9 ; 7.393821945208688E9 ; 1.9678243148178918E11 ; 0.0
172 ; 4.159135161963173E7 ; 1.2124340169634595E9 ; 7.435452972259796E9 ; 1.9799481410010007E11 ; 0.0
173 ; 4.1556866127636686E7 ; 1.2124852389564493E9 ; 7.477044323879428E9 ; 1.9920724811706354E11 ; 0.0
174 ; 4.1530595436594464E7 ; 1.2125362829454303E9 ; 7.518601190007065E9 ; 2.0041973335602E11 ; 0.0
175 ; 4.150659358290607E7 ; 1.2125871475976367E9 ; 7.560131785443659E9 ; 2.0163226963896542E11 ; 0.0
176 ; 4.1481377026917286E7 ; 1.2126378315917509E9 ; 7.601638379026565E9 ; 2.0284485678656305E11 ; 0.0
177 ; 4.145643807437371E7 ; 1.212688333617706E9 ; 7.643119756053482E9 ; 2.040574946181548E11 ; 0.0
178 ; 4.143239622297067E7 ; 1.212738652376502E9 ; 7.684576194127855E9 ; 2.052701829517725E11 ; 0.0
179 ; 4.141162499988118E7 ; 1.2127887865800228E9 ; 7.726008590350826E9 ; 2.06482921604149E11 ; 0.0
180 ; 4.138677343661998E7 ; 1.2128387349508631E9 ; 7.767420215350707E9 ; 2.07695710390729E11 ; 0.0
181 ; 4.13590648922313E7 ; 1.2128884962221599E9 ; 7.808806988787327E9 ; 2.0890854912567987E11 ; 0.0
182 ; 4.134028800236884E7 ; 1.2129380691374316E9 ; 7.850166053679558E9 ; 2.1012143762190204E11 ; 0.0
183 ; 4.1316911889863566E7 ; 1.2129874524504197E9 ; 7.891506341681927E9 ; 2.1133437569103946E11 ; 0.0
184 ; 4.1287039002522685E7 ; 1.2130366449249394E9 ; 7.932823253571791E9 ; 2.1254736314348987E11 ; 0.0
185 ; 4.1264219778993115E7 ; 1.2130856453347347E9 ; 7.974110292574313E9 ; 2.137603997884148E11 ; 0.0
186 ; 4.1240269211836636E7 ; 1.213134452463336E9 ; 8.015374512353306E9 ; 2.1497348543374954E11 ; 0.0
187 ; 4.121837384791755E7 ; 1.2131830651039267E9 ; 8.056614781565143E9 ; 2.161866198862129E11 ; 0.0
188 ; 4.119854244967167E7 ; 1.2132314820592117E9 ; 8.09783315541306E9 ; 2.173998029513168E11 ; 0.0
189 ; 4.117285762831556E7 ; 1.2132797021412907E9 ; 8.139031697862732E9 ; 2.18613034433376E11 ; 0.0
190 ; 4.114499945529221E7 ; 1.2133277241715374E9 ; 8.180204555491048E9 ; 2.198263141355173E11 ; 0.0
191 ; 4.111993691738246E7 ; 1.2133755469804819E9 ; 8.22134955494634E9 ; 2.2103964185968884E11 ; 0.0
192 ; 4.1096824601403564E7 ; 1.2134231694076967E9 ; 8.262469491863722E9 ; 2.222530174066693E11 ; 0.0
193 ; 4.107533986378389E7 ; 1.2134705903016882E9 ; 8.303566316465125E9 ; 2.23466440576077E11 ; 0.0
194 ; 4.104240486411845E7 ; 1.2135178085197902E9 ; 8.344641656328909E9 ; 2.246799111663787E11 ; 0.0
195 ; 4.102829999060309E7 ; 1.2135648229280632E9 ; 8.3856840611930275E9 ; 2.2589342897489847E11 ; 0.0
196 ; 4.1002722322724625E7 ; 1.2136116324011936E9 ; 8.426712361183631E9 ; 2.2710699379782654E11 ; 0.0
