CSV File for the Network on Day 327
1 - Minute m 
2 - Power Consumed at minute m 
3 - Power Produced at minute m 
4 - Energy Consumed since the beginning of the day 
5 - Energy Produced since the beginning of the day 
6 - Energy Lost since the beginning of the day 
 
0 ; 3.8836021977848835E7 ; 6.373881296467429E8 ; 0.0 ; 0.0 ; 0.0
1 ; 3.887495480765904E7 ; 6.38298331293067E8 ; 3.8836021977848835E7 ; 6.373881296467429E8 ; 0.0
2 ; 3.8924665811639264E7 ; 6.410620039543654E8 ; 7.771097678550787E7 ; 1.2756864609398098E9 ; 0.0
3 ; 3.897202596928977E7 ; 6.456791594509428E8 ; 1.1663564259714714E8 ; 1.916748464894175E9 ; 0.0
4 ; 3.902965856139943E7 ; 6.521498083215904E8 ; 1.5560766856643692E8 ; 2.5624276243451176E9 ; 0.0
5 ; 3.910426298223023E7 ; 6.604739597838316E8 ; 1.9463732712783635E8 ; 3.214577432666708E9 ; 0.0
6 ; 3.919017934198127E7 ; 6.706516216987027E8 ; 2.337415901100666E8 ; 3.8750513924505396E9 ; 0.0
7 ; 3.9319832615354784E7 ; 6.82682800540391E8 ; 2.729317694520479E8 ; 4.545703014149242E9 ; 0.0
8 ; 3.950995525447292E7 ; 6.965675013709998E8 ; 3.1225160206740266E8 ; 5.228385814689633E9 ; 0.0
9 ; 3.9794084840014726E7 ; 7.123057278206749E8 ; 3.517615573218756E8 ; 5.924953316060633E9 ; 0.0
10 ; 4.023134178516685E7 ; 7.298974820732733E8 ; 3.9155564216189027E8 ; 6.637259043881308E9 ; 0.0
11 ; 4.0917785514457926E7 ; 7.49342764857712E8 ; 4.317869839470571E8 ; 7.367156525954581E9 ; 0.0
12 ; 4.202614449354582E7 ; 7.706415754450741E8 ; 4.7270476946151507E8 ; 8.116499290812293E9 ; 0.0
13 ; 4.3088224359191336E7 ; 7.93793911651502E8 ; 5.147309139550609E8 ; 8.887140866257366E9 ; 0.0
14 ; 4.322276666441648E7 ; 8.187997698468511E8 ; 5.578191383142523E8 ; 9.680934777908869E9 ; 0.0
15 ; 4.326780113453323E7 ; 8.456591449690167E8 ; 6.010419049786687E8 ; 1.049973454775572E10 ; 0.0
16 ; 4.331683366161961E7 ; 8.743720305438128E8 ; 6.443097061132019E8 ; 1.1345393692724737E10 ; 0.0
17 ; 4.337051814981677E7 ; 9.04938418710202E8 ; 6.876265397748215E8 ; 1.221976572326855E10 ; 0.0
18 ; 4.342829578174213E7 ; 9.373583002506618E8 ; 7.309970579246383E8 ; 1.3124704141978752E10 ; 0.0
19 ; 4.3474533604441434E7 ; 9.716316646264002E8 ; 7.744253537063804E8 ; 1.4062062442229414E10 ; 0.0
20 ; 4.353333761115653E7 ; 1.0077585000171131E9 ; 8.178998873108218E8 ; 1.5033694106855814E10 ; 0.0
21 ; 4.358232374902275E7 ; 1.0457387933649325E9 ; 8.614332249219784E8 ; 1.6041452606872927E10 ; 0.0
22 ; 4.3642176958510794E7 ; 1.0855725304221897E9 ; 9.050155486710011E8 ; 1.708719140023786E10 ; 0.0
23 ; 4.368982000246977E7 ; 1.1272596958025966E9 ; 9.486577256295118E8 ; 1.817276393066005E10 ; 0.0
24 ; 4.374423092864136E7 ; 1.1708002730354187E9 ; 9.923475456319816E8 ; 1.9300023626462646E10 ; 0.0
25 ; 4.380038972632651E7 ; 1.2083224900113273E9 ; 1.0360917765606229E9 ; 2.0470823899498066E10 ; 0.0
26 ; 4.384787566879451E7 ; 1.2083476152626505E9 ; 1.0798921662869494E9 ; 2.167914638950939E10 ; 0.0
27 ; 4.38964116933883E7 ; 1.2083742451733792E9 ; 1.1237400419557438E9 ; 2.288749400477204E10 ; 0.0
28 ; 4.394595614119276E7 ; 1.2084023595216503E9 ; 1.167636453649132E9 ; 2.409586824994542E10 ; 0.0
29 ; 4.400073034748112E7 ; 1.2084319373019235E9 ; 1.2115824097903247E9 ; 2.530427060946707E10 ; 0.0
30 ; 4.405046232901536E7 ; 1.2084629567881312E9 ; 1.2555831401378057E9 ; 2.6512702546768993E10 ; 0.0
31 ; 4.4096718433908485E7 ; 1.2084953955968847E9 ; 1.299633602466821E9 ; 2.7721165503557125E10 ; 0.0
32 ; 4.414073172080207E7 ; 1.2085292307503753E9 ; 1.3437303209007294E9 ; 2.892966089915401E10 ; 0.0
33 ; 4.4188188429536894E7 ; 1.208564438738625E9 ; 1.3878710526215315E9 ; 3.0138190129904385E10 ; 0.0
34 ; 4.424357581781793E7 ; 1.2086009955807707E9 ; 1.4320592410510683E9 ; 3.134675456864301E10 ; 0.0
35 ; 4.427830252577433E7 ; 1.2086388768850985E9 ; 1.4763028168688862E9 ; 3.255535556422378E10 ; 0.0
36 ; 4.4319395075597785E7 ; 1.2086780579075637E9 ; 1.5205811193946605E9 ; 3.376399444110888E10 ; 0.0
37 ; 4.436356738833816E7 ; 1.2087185136085773E9 ; 1.5649005144702582E9 ; 3.497267249901644E10 ; 0.0
38 ; 4.4399696250841E7 ; 1.2087602187078462E9 ; 1.6092640818585963E9 ; 3.6181391012625015E10 ; 0.0
39 ; 4.44402912234066E7 ; 1.208803147737113E9 ; 1.6536637781094372E9 ; 3.739015123133286E10 ; 0.0
40 ; 4.447938196727937E7 ; 1.2088472750906434E9 ; 1.6981040693328438E9 ; 3.859895437906998E10 ; 0.0
41 ; 4.4511257026723355E7 ; 1.2088925750733538E9 ; 1.7425834513001232E9 ; 3.980780165416062E10 ; 0.0
42 ; 4.4544977608622685E7 ; 1.2089390219464912E9 ; 1.7870947083268466E9 ; 4.101669422923398E10 ; 0.0
43 ; 4.4576020556392506E7 ; 1.2089865899708042E9 ; 1.8316396859354694E9 ; 4.2225633251180466E10 ; 0.0
44 ; 4.4602890853623435E7 ; 1.2090352534471657E9 ; 1.8762157064918618E9 ; 4.343461984115127E10 ; 0.0
45 ; 4.463699930712991E7 ; 1.209084986754633E9 ; 1.9208185973454852E9 ; 4.4643655094598434E10 ; 0.0
46 ; 4.465606952039252E7 ; 1.2091357643859453E9 ; 1.965455596652615E9 ; 4.5852740081353065E10 ; 0.0
47 ; 4.467982041174965E7 ; 1.209187560980481E9 ; 2.0101116661730075E9 ; 4.706187584573901E10 ; 0.0
48 ; 4.4706310399522655E7 ; 1.2092403513547091E9 ; 2.054791486584757E9 ; 4.82710634067195E10 ; 0.0
49 ; 4.471949128612465E7 ; 1.209294110530186E9 ; 2.0994977969842796E9 ; 4.94803037580742E10 ; 0.0
50 ; 4.473932173978017E7 ; 1.2093488137591588E9 ; 2.1442172882704043E9 ; 5.068959786860439E10 ; 0.0
51 ; 4.475847125598054E7 ; 1.2094044365478468E9 ; 2.1889566100101843E9 ; 5.189894668236355E10 ; 0.0
52 ; 4.4775352999213606E7 ; 1.2094609546774814E9 ; 2.233715081266165E9 ; 5.310835111891139E10 ; 0.0
53 ; 4.4786455188917264E7 ; 1.2095183442231913E9 ; 2.2784904342653785E9 ; 5.4317812073588875E10 ; 0.0
54 ; 4.480361609980093E7 ; 1.2095765815708265E9 ; 2.3232768894542956E9 ; 5.5527330417812065E10 ; 0.0
55 ; 4.482126534151103E7 ; 1.2096356434318178E9 ; 2.3680805055540967E9 ; 5.673690699938289E10 ; 0.0
56 ; 4.4840704474900275E7 ; 1.209695506856167E9 ; 2.412901770895608E9 ; 5.7946542642814705E10 ; 0.0
57 ; 4.484084559811157E7 ; 1.2097561492436748E9 ; 2.457742475370508E9 ; 5.9156238149670876E10 ; 0.0
58 ; 4.4859949127089374E7 ; 1.209817548353503E9 ; 2.50258332096862E9 ; 6.036599429891455E10 ; 0.0
59 ; 4.487318863308802E7 ; 1.2098796823121758E9 ; 2.5474432700957093E9 ; 6.157581184726805E10 ; 0.0
60 ; 4.4889097394713484E7 ; 1.2099425296201165E9 ; 2.5923164587287974E9 ; 6.278569152958023E10 ; 0.0
61 ; 4.489542720059197E7 ; 1.210006069156822E9 ; 2.637205556123511E9 ; 6.399563405920035E10 ; 0.0
62 ; 4.4908204678148635E7 ; 1.21007028018477E9 ; 2.682100983324103E9 ; 6.520564012835717E10 ; 0.0
63 ; 4.492746090038091E7 ; 1.2101351423521519E9 ; 2.7270091880022516E9 ; 6.641571040854194E10 ; 0.0
64 ; 4.49291345971687E7 ; 1.2102006356945224E9 ; 2.7719366489026327E9 ; 6.762584555089409E10 ; 0.0
65 ; 4.494817887525694E7 ; 1.2102667406354542E9 ; 2.8168657834998016E9 ; 6.883604618658861E10 ; 0.0
66 ; 4.494997120317772E7 ; 1.2103334379862797E9 ; 2.8618139623750587E9 ; 7.004631292722406E10 ; 0.0
67 ; 4.497016667482421E7 ; 1.2104007089450011E9 ; 2.9067639335782366E9 ; 7.125664636521034E10 ; 0.0
68 ; 4.497350330717036E7 ; 1.2104685350944438E9 ; 2.951734100253061E9 ; 7.246704707415535E10 ; 0.0
69 ; 4.498547921970139E7 ; 1.2105368983997242E9 ; 2.996707603560231E9 ; 7.367751560924979E10 ; 0.0
70 ; 4.499177836217926E7 ; 1.2106057812051048E9 ; 3.0416930827799325E9 ; 7.48880525076495E10 ; 0.0
71 ; 4.500201661881489E7 ; 1.2106751662302923E9 ; 3.086684861142112E9 ; 7.609865828885461E10 ; 0.0
72 ; 4.501108350468609E7 ; 1.210745036566247E9 ; 3.1316868777609267E9 ; 7.73093334550849E10 ; 0.0
73 ; 4.502133721478676E7 ; 1.2108153756705558E9 ; 3.1766979612656126E9 ; 7.852007849165115E10 ; 0.0
74 ; 4.50331760272058E7 ; 1.210886167362421E9 ; 3.221719298480399E9 ; 7.973089386732172E10 ; 0.0
75 ; 4.5038135477386214E7 ; 1.2109573958173156E9 ; 3.266752474507605E9 ; 8.094178003468414E10 ; 0.0
76 ; 4.504198064670038E7 ; 1.21102904556135E9 ; 3.311790609984991E9 ; 8.215273743050146E10 ; 0.0
77 ; 4.504809043132366E7 ; 1.2111011014653912E9 ; 3.3568325906316915E9 ; 8.336376647606282E10 ; 0.0
78 ; 4.5035435780485325E7 ; 1.211173548738974E9 ; 3.401880681063015E9 ; 8.457486757752821E10 ; 0.0
79 ; 4.5039029728252634E7 ; 1.211246372924042E9 ; 3.4469161168435E9 ; 8.578604112626718E10 ; 0.0
80 ; 4.50299656466273E7 ; 1.2113195598885458E9 ; 3.4919551465717525E9 ; 8.699728749919122E10 ; 0.0
81 ; 4.501787990437323E7 ; 1.2113930958199356E9 ; 3.53698511221838E9 ; 8.820860705907977E10 ; 0.0
82 ; 4.500779361041097E7 ; 1.2114669672185688E9 ; 3.582002992122753E9 ; 8.94200001548997E10 ; 0.0
83 ; 4.501209870228998E7 ; 1.211541160891064E9 ; 3.6270107857331643E9 ; 9.063146712211827E10 ; 0.0
84 ; 4.500030986609863E7 ; 1.211615663943618E9 ; 3.6720228844354544E9 ; 9.184300828300934E10 ; 0.0
85 ; 4.4992824985860616E7 ; 1.211690463775312E9 ; 3.717023194301553E9 ; 9.305462394695296E10 ; 0.0
86 ; 4.496989414346587E7 ; 1.2117655480714197E9 ; 3.7620160192874136E9 ; 9.426631441072827E10 ; 0.0
87 ; 4.497008417641591E7 ; 1.2118409047967415E9 ; 3.8069859134308796E9 ; 9.54780799587997E10 ; 0.0
88 ; 4.495317981793364E7 ; 1.2119165221889718E9 ; 3.8519559976072955E9 ; 9.668992086359644E10 ; 0.0
89 ; 4.494454625550589E7 ; 1.211992388752116E9 ; 3.896909177425229E9 ; 9.79018373857854E10 ; 0.0
90 ; 4.492893746940642E7 ; 1.2120684932499733E9 ; 3.941853723680735E9 ; 9.911382977453752E10 ; 0.0
91 ; 4.492075822637305E7 ; 1.2121448246996875E9 ; 3.9867826611501417E9 ; 1.0032589826778749E11 ; 0.0
92 ; 4.4906803255564235E7 ; 1.2122213723653805E9 ; 4.031703419376515E9 ; 1.0153804309248718E11 ; 0.0
93 ; 4.4894221878504425E7 ; 1.2122981257518773E9 ; 4.076610222632079E9 ; 1.0275026446485257E11 ; 0.0
94 ; 4.4880766386675894E7 ; 1.2123750745985217E9 ; 4.1215044445105834E9 ; 1.0396256259060445E11 ; 0.0
95 ; 4.486549747584219E7 ; 1.2124522088731022E9 ; 4.166385210897259E9 ; 1.0517493766520297E11 ; 0.0
96 ; 4.4857336388510555E7 ; 1.2125295187658758E9 ; 4.211250708373101E9 ; 1.0638738987407608E11 ; 0.0
97 ; 4.4846091685362145E7 ; 1.2126069946837106E9 ; 4.256108044761612E9 ; 1.0759991939284195E11 ; 0.0
98 ; 4.483058672214126E7 ; 1.2126846272443395E9 ; 4.300954136446974E9 ; 1.0881252638752567E11 ; 0.0
99 ; 4.4813822792663455E7 ; 1.212762407270731E9 ; 4.345784723169115E9 ; 1.1002521101477E11 ; 0.0
100 ; 4.480236407245523E7 ; 1.212840325785581E9 ; 4.390598545961779E9 ; 1.1123797342204074E11 ; 0.0
101 ; 4.478999069174888E7 ; 1.2129183740059268E9 ; 4.435400910034234E9 ; 1.1245081374782632E11 ; 0.0
102 ; 4.4769036290878974E7 ; 1.2129965433378778E9 ; 4.480190900725983E9 ; 1.1366373212183224E11 ; 0.0
103 ; 4.4757554961438105E7 ; 1.2130748253714762E9 ; 4.524959937016862E9 ; 1.1487672866517012E11 ; 0.0
104 ; 4.473958100417045E7 ; 1.213153211875675E9 ; 4.5697174919783E9 ; 1.160898034905416E11 ; 0.0
105 ; 4.4711524781879015E7 ; 1.2132316947934425E9 ; 4.6144570729824705E9 ; 1.1730295670241727E11 ; 0.0
106 ; 4.47009934334857E7 ; 1.2133102662369864E9 ; 4.65916859776435E9 ; 1.1851618839721071E11 ; 0.0
107 ; 4.4680525745339885E7 ; 1.2133889184831014E9 ; 4.703869591197836E9 ; 1.197294986634477E11 ; 0.0
108 ; 4.4666895476622865E7 ; 1.2134676439686348E9 ; 4.748550116943176E9 ; 1.209428875819308E11 ; 0.0
109 ; 4.464337456239004E7 ; 1.2135464352860756E9 ; 4.793217012419799E9 ; 1.2215635522589943E11 ; 0.0
110 ; 4.463174781838482E7 ; 1.213625285179256E9 ; 4.837860386982189E9 ; 1.233699016611855E11 ; 0.0
111 ; 4.4611555081019215E7 ; 1.2137041865391734E9 ; 4.882492134800574E9 ; 1.2458352694636476E11 ; 0.0
112 ; 4.4590784268157765E7 ; 1.2137831323999248E9 ; 4.927103689881594E9 ; 1.2579723113290393E11 ; 0.0
113 ; 4.4567469242428176E7 ; 1.2138621159347544E9 ; 4.971694474149752E9 ; 1.2701101426530385E11 ; 0.0
114 ; 4.4547342985970005E7 ; 1.2139411304522114E9 ; 5.0162619433921795E9 ; 1.282248763812386E11 ; 0.0
115 ; 4.452627301131874E7 ; 1.214020169392416E9 ; 5.060809286378149E9 ; 1.2943881751169081E11 ; 0.0
116 ; 4.450787931692177E7 ; 1.2140992263234324E9 ; 5.105335559389468E9 ; 1.3065283768108322E11 ; 0.0
117 ; 4.448944279662579E7 ; 1.214178294937746E9 ; 5.14984343870639E9 ; 1.3186693690740665E11 ; 0.0
118 ; 4.4457620978616804E7 ; 1.214257369048841E9 ; 5.194332881503016E9 ; 1.3308111520234439E11 ; 0.0
119 ; 4.444187841198166E7 ; 1.2143364425878792E9 ; 5.238790502481633E9 ; 1.3429537257139323E11 ; 0.0
120 ; 4.441825898149162E7 ; 1.2144155096004763E9 ; 5.283232380893615E9 ; 1.3550970901398111E11 ; 0.0
121 ; 4.4394990648359336E7 ; 1.2144945642435708E9 ; 5.327650639875107E9 ; 1.3672412452358159E11 ; 0.0
122 ; 4.437646332129215E7 ; 1.2145736007823887E9 ; 5.372045630523466E9 ; 1.3793861908782516E11 ; 0.0
123 ; 4.434530356068463E7 ; 1.2146526135874953E9 ; 5.416422093844758E9 ; 1.3915319268860754E11 ; 0.0
124 ; 4.432862988172662E7 ; 1.2147315971319375E9 ; 5.460767397405442E9 ; 1.4036784530219504E11 ; 0.0
125 ; 4.430002763429428E7 ; 1.2148105459884717E9 ; 5.5050960272871685E9 ; 1.4158257689932697E11 ; 0.0
126 ; 4.427281360460526E7 ; 1.2148894548268719E9 ; 5.549396054921463E9 ; 1.4279738744531543E11 ; 0.0
127 ; 4.424527817327428E7 ; 1.214968318411324E9 ; 5.593668868526069E9 ; 1.440122769001423E11 ; 0.0
128 ; 4.4224736595053524E7 ; 1.2150471315978947E9 ; 5.637914146699343E9 ; 1.4522724521855362E11 ; 0.0
129 ; 4.419582611191402E7 ; 1.21512588933208E9 ; 5.682138883294396E9 ; 1.4644229235015152E11 ; 0.0
130 ; 4.4165396543865696E7 ; 1.2152045866464257E9 ; 5.72633470940631E9 ; 1.476574182394836E11 ; 0.0
131 ; 4.412374735753549E7 ; 1.2152832186582234E9 ; 5.770500105950176E9 ; 1.4887262282613004E11 ; 0.0
132 ; 4.408219465926609E7 ; 1.2153617805672746E9 ; 5.814623853307712E9 ; 1.5008790604478827E11 ; 0.0
133 ; 4.404282373218396E7 ; 1.2154402676537232E9 ; 5.858706047966978E9 ; 1.5130326782535553E11 ; 0.0
134 ; 4.400353506683023E7 ; 1.2155186752759562E9 ; 5.9027488716991625E9 ; 1.5251870809300925E11 ; 0.0
135 ; 4.3965730212231696E7 ; 1.2155969988685665E9 ; 5.946752406765993E9 ; 1.5373422676828522E11 ; 0.0
136 ; 4.3923403305471554E7 ; 1.2156752339403796E9 ; 5.990718136978225E9 ; 1.5494982376715378E11 ; 0.0
137 ; 4.3879078184015945E7 ; 1.2157533760725408E9 ; 6.034641540283696E9 ; 1.5616549900109415E11 ; 0.0
138 ; 4.383816973308108E7 ; 1.2158314209166598E9 ; 6.078520618467712E9 ; 1.573812523771667E11 ; 0.0
139 ; 4.3798303609255195E7 ; 1.2159093641930146E9 ; 6.122358788200793E9 ; 1.5859708379808334E11 ; 0.0
140 ; 4.375549336360662E7 ; 1.2159872016888084E9 ; 6.166157091810048E9 ; 1.5981299316227637E11 ; 0.0
141 ; 4.370259357981129E7 ; 1.2160649292564812E9 ; 6.209912585173655E9 ; 1.6102898036396518E11 ; 0.0
142 ; 4.366106259116873E7 ; 1.2161425428120735E9 ; 6.253615178753466E9 ; 1.6224504529322165E11 ; 0.0
143 ; 4.36134180905611E7 ; 1.2162200383336387E9 ; 6.297276241344634E9 ; 1.6346118783603372E11 ; 0.0
144 ; 4.357417587928574E7 ; 1.2162974118597074E9 ; 6.340889659435195E9 ; 1.6467740787436737E11 ; 0.0
145 ; 4.354107033710966E7 ; 1.2163746594877949E9 ; 6.384463835314481E9 ; 1.6589370528622708E11 ; 0.0
146 ; 4.351105844079729E7 ; 1.2164517773729582E9 ; 6.42800490565159E9 ; 1.6711007994571487E11 ; 0.0
147 ; 4.34871368956127E7 ; 1.2165287617263942E9 ; 6.471515964092387E9 ; 1.6832653172308783E11 ; 0.0
148 ; 4.3460062856112435E7 ; 1.216605608814083E9 ; 6.515003100988E9 ; 1.695430604848142E11 ; 0.0
149 ; 4.343158945704366E7 ; 1.216682314955472E9 ; 6.558463163844112E9 ; 1.707596660936283E11 ; 0.0
150 ; 4.340354671803546E7 ; 1.2167588765221999E9 ; 6.601894753301156E9 ; 1.7197634840858377E11 ; 0.0
151 ; 4.3377147662799895E7 ; 1.2168352899368608E9 ; 6.645298300019192E9 ; 1.7319310728510596E11 ; 0.0
152 ; 4.334278539275067E7 ; 1.2169115516718047E9 ; 6.688675447681992E9 ; 1.7440994257504282E11 ; 0.0
153 ; 4.331366402256635E7 ; 1.2169876582479753E9 ; 6.732018233074742E9 ; 1.7562685412671463E11 ; 0.0
154 ; 4.3286326565826714E7 ; 1.2170636062337837E9 ; 6.775331897097309E9 ; 1.7684384178496262E11 ; 0.0
155 ; 4.326345342123672E7 ; 1.2171393922440157E9 ; 6.818618223663136E9 ; 1.780609053911964E11 ; 0.0
156 ; 4.322857163042074E7 ; 1.2172150129387715E9 ; 6.8618816770843725E9 ; 1.7927804478344043E11 ; 0.0
157 ; 4.3200193902427286E7 ; 1.2172904650224402E9 ; 6.905110248714793E9 ; 1.804952597963792E11 ; 0.0
158 ; 4.317140202550508E7 ; 1.217365745242703E9 ; 6.948310442617221E9 ; 1.8171255026140164E11 ; 0.0
159 ; 4.313792331056262E7 ; 1.217440850389567E9 ; 6.991481844642726E9 ; 1.8292991600664435E11 ; 0.0
160 ; 4.310876995663433E7 ; 1.2175157772944288E9 ; 7.034619767953289E9 ; 1.841473568570339E11 ; 0.0
161 ; 4.3080675918764256E7 ; 1.217590522829167E9 ; 7.077728537909924E9 ; 1.8536487263432834E11 ; 0.0
162 ; 4.304835983284247E7 ; 1.2176650839052594E9 ; 7.120809213828688E9 ; 1.865824631571575E11 ; 0.0
163 ; 4.302255531428432E7 ; 1.2177394574729307E9 ; 7.1638575736615305E9 ; 1.8780012824106277E11 ; 0.0
164 ; 4.2986049550532095E7 ; 1.2178136405203218E9 ; 7.206880128975815E9 ; 1.890178676985357E11 ; 0.0
165 ; 4.295747121566574E7 ; 1.2178876300726874E9 ; 7.249866178526347E9 ; 1.9023568133905603E11 ; 0.0
166 ; 4.292292356946798E7 ; 1.2179614231916142E9 ; 7.292823649742013E9 ; 1.9145356896912872E11 ; 0.0
167 ; 4.289365426831898E7 ; 1.2180350169742675E9 ; 7.3357465733114805E9 ; 1.9267153039232034E11 ; 0.0
168 ; 4.2862166930577785E7 ; 1.2181084085526533E9 ; 7.3786402275798E9 ; 1.9388956540929462E11 ; 0.0
169 ; 4.2830516396918274E7 ; 1.2181815950929093E9 ; 7.421502394510378E9 ; 1.9510767381784726E11 ; 0.0
170 ; 4.2799634163089015E7 ; 1.2182545737946134E9 ; 7.464332910907296E9 ; 1.9632585541294016E11 ; 0.0
171 ; 4.276799125201809E7 ; 1.2183273418901112E9 ; 7.507132545070385E9 ; 1.9754410998673477E11 ; 0.0
172 ; 4.2733806848388694E7 ; 1.2183998966438684E9 ; 7.549900536322403E9 ; 1.9876243732862488E11 ; 0.0
173 ; 4.2713998644322336E7 ; 1.2184722353518384E9 ; 7.592634343170792E9 ; 1.9998083722526874E11 ; 0.0
174 ; 4.2691724541489966E7 ; 1.2185443553408484E9 ; 7.635348341815114E9 ; 2.0119930946062057E11 ; 0.0
175 ; 4.2666207459718145E7 ; 1.2186162539680061E9 ; 7.678040066356604E9 ; 2.0241785381596143E11 ; 0.0
176 ; 4.265160399033802E7 ; 1.2186879286201234E9 ; 7.720706273816321E9 ; 2.0363647006992944E11 ; 0.0
177 ; 4.263485818127614E7 ; 1.2187593767131546E9 ; 7.76335787780666E9 ; 2.0485515799854956E11 ; 0.0
178 ; 4.261057291704359E7 ; 1.2188305956916523E9 ; 7.805992735987936E9 ; 2.0607391737526273E11 ; 0.0
179 ; 4.259078677302238E7 ; 1.2189015830282426E9 ; 7.84860330890498E9 ; 2.0729274797095438E11 ; 0.0
180 ; 4.256869351249783E7 ; 1.2189723362231095E9 ; 7.891194095678002E9 ; 2.085116495539826E11 ; 0.0
181 ; 4.254828330375391E7 ; 1.2190428528034987E9 ; 7.9337627891905E9 ; 2.0973062189020572E11 ; 0.0
182 ; 4.252844206358864E7 ; 1.2191131303232355E9 ; 7.976311072494254E9 ; 2.1094966474300922E11 ; 0.0
183 ; 4.251625382496632E7 ; 1.2191831663622537E9 ; 8.018839514557843E9 ; 2.1216877787333246E11 ; 0.0
184 ; 4.249175332223003E7 ; 1.2192529585261426E9 ; 8.06135576838281E9 ; 2.133879610396947E11 ; 0.0
185 ; 4.2479273201168954E7 ; 1.219322504445704E9 ; 8.10384752170504E9 ; 2.1460721399822086E11 ; 0.0
186 ; 4.2454798153906375E7 ; 1.219391801776521E9 ; 8.146326794906209E9 ; 2.1582653650266656E11 ; 0.0
187 ; 4.244037401715455E7 ; 1.2194E9 ; 8.188781593060116E9 ; 2.1704592830444308E11 ; 0.0
188 ; 4.2417166401101306E7 ; 1.2194E9 ; 8.2312219670772705E9 ; 2.1826532830444308E11 ; 0.0
189 ; 4.239814146706402E7 ; 1.2194E9 ; 8.273639133478372E9 ; 2.1948472830444308E11 ; 0.0
190 ; 4.237537739314398E7 ; 1.2194E9 ; 8.316037274945436E9 ; 2.2070412830444308E11 ; 0.0
191 ; 4.2356496590457305E7 ; 1.2194E9 ; 8.358412652338579E9 ; 2.2192352830444308E11 ; 0.0
192 ; 4.233650908672865E7 ; 1.2194E9 ; 8.400769148929036E9 ; 2.2314292830444308E11 ; 0.0
193 ; 4.231355993324095E7 ; 1.2194E9 ; 8.443105658015765E9 ; 2.2436232830444308E11 ; 0.0
194 ; 4.2299670971632525E7 ; 1.2194E9 ; 8.485419217949006E9 ; 2.2558172830444308E11 ; 0.0
195 ; 4.227951830973728E7 ; 1.2194E9 ; 8.527718888920639E9 ; 2.2680112830444308E11 ; 0.0
196 ; 4.226074845513991E7 ; 1.2194E9 ; 8.569998407230376E9 ; 2.2802052830444308E11 ; 0.0
197 ; 4.2240345987708874E7 ; 1.2194E9 ; 8.612259155685516E9 ; 2.2923992830444308E11 ; 0.0
