CSV File for the Network on Day 172
1 - Minute m 
2 - Power Consumed at minute m 
3 - Power Produced at minute m 
4 - Energy Consumed since the beginning of the day 
5 - Energy Produced since the beginning of the day 
6 - Energy Lost since the beginning of the day 
 
0 ; 1.2062102777882269E7 ; 6.348014471468014E8 ; 0.0 ; 0.0 ; 0.0
1 ; 1.2099568142515577E7 ; 6.357121003445046E8 ; 1.2062102777882269E7 ; 6.348014471468014E8 ; 0.0
2 ; 1.212568130755308E7 ; 6.384761579379351E8 ; 2.4161670920397848E7 ; 1.2705135474913058E9 ; 0.0
3 ; 1.2166681594562776E7 ; 6.430936378282967E8 ; 3.628735222795093E7 ; 1.908989705429241E9 ; 0.0
4 ; 1.2216118748543838E7 ; 6.495645560814278E8 ; 4.845403382251371E7 ; 2.552083343257538E9 ; 0.0
5 ; 1.2283521223793719E7 ; 6.57888926830998E8 ; 6.067015257105754E7 ; 3.2016478993389654E9 ; 0.0
6 ; 1.2364362612321626E7 ; 6.680667621915642E8 ; 7.295367379485126E7 ; 3.8595368261699634E9 ; 0.0
7 ; 1.248818671637883E7 ; 6.800980721827127E8 ; 8.531803640717289E7 ; 4.527603588361527E9 ; 0.0
8 ; 1.2663590982772134E7 ; 6.939828646653829E8 ; 9.780622312355173E7 ; 5.20770166054424E9 ; 0.0
9 ; 1.2942277522195255E7 ; 7.097211452913148E8 ; 1.1046981410632387E8 ; 5.901684525209623E9 ; 0.0
10 ; 1.3373138748400813E7 ; 7.273129174663805E8 ; 1.2341209162851912E8 ; 6.611405670500938E9 ; 0.0
11 ; 1.4049129702273786E7 ; 7.467581823283521E8 ; 1.3678523037691993E8 ; 7.338718587967319E9 ; 0.0
12 ; 1.5150059088058116E7 ; 7.68056938739457E8 ; 1.508343600791937E8 ; 8.0854767702956705E9 ; 0.0
13 ; 1.6200225159556389E7 ; 7.912091832938237E8 ; 1.6598441916725183E8 ; 8.853533709035128E9 ; 0.0
14 ; 1.6334153781779602E7 ; 8.162149103397126E8 ; 1.821846443268082E8 ; 9.64474289232895E9 ; 0.0
15 ; 1.637205352484257E7 ; 8.430741120161831E8 ; 1.985187981085878E8 ; 1.0460957802668663E10 ; 0.0
16 ; 1.641562572667014E7 ; 8.7178677830365E8 ; 2.1489085163343036E8 ; 1.1304031914684847E10 ; 0.0
17 ; 1.646513108268546E7 ; 9.02352897087556E8 ; 2.313064773601005E8 ; 1.2175818692988497E10 ; 0.0
18 ; 1.650355855537993E7 ; 9.347724542342315E8 ; 2.4777160844278598E8 ; 1.3078171590076054E10 ; 0.0
19 ; 1.6553088932694547E7 ; 9.69045433677838E8 ; 2.642751669981659E8 ; 1.4012944044310286E10 ; 0.0
20 ; 1.6594754389444912E7 ; 1.0051718175171715E9 ; 2.8082825593086046E8 ; 1.4981989477988123E10 ; 0.0
21 ; 1.6633323379626218E7 ; 1.043151586121001E9 ; 2.9742301032030535E8 ; 1.5987161295505295E10 ; 0.0
22 ; 1.668478613605158E7 ; 1.0829847182405488E9 ; 3.1405633369993156E8 ; 1.7030312881626295E10 ; 0.0
23 ; 1.6728763325275041E7 ; 1.1246711911276891E9 ; 3.3074111983598316E8 ; 1.8113297599866844E10 ; 0.0
24 ; 1.6773433914241016E7 ; 1.1682109806574273E9 ; 3.474698831612582E8 ; 1.9237968790994534E10 ; 0.0
25 ; 1.6818378797677003E7 ; 1.2057323068423524E9 ; 3.6424331707549924E8 ; 2.0406179771651962E10 ; 0.0
26 ; 1.6866045449926063E7 ; 1.2057564301808755E9 ; 3.810616958731762E8 ; 2.1611912078494316E10 ; 0.0
27 ; 1.6914026239788488E7 ; 1.2057819389337273E9 ; 3.979277413231023E8 ; 2.281766850867519E10 ; 0.0
28 ; 1.695199349266924E7 ; 1.2058088047306871E9 ; 4.1484176756289077E8 ; 2.4023450447608917E10 ; 0.0
29 ; 1.6992940226430543E7 ; 1.2058369984540682E9 ; 4.3179376105556E8 ; 2.5229259252339603E10 ; 0.0
30 ; 1.703244731984494E7 ; 1.20586649035966E9 ; 4.487867012819905E8 ; 2.643509625079367E10 ; 0.0
31 ; 1.7075710098960675E7 ; 1.2058972501937456E9 ; 4.658191486018355E8 ; 2.764096274115333E10 ; 0.0
32 ; 1.71169169147453E7 ; 1.2059292473054495E9 ; 4.828948587007962E8 ; 2.8846859991347076E10 ; 0.0
33 ; 1.7155439030841626E7 ; 1.2059624507538123E9 ; 5.0001177561554146E8 ; 3.0052789238652527E10 ; 0.0
34 ; 1.719173195435806E7 ; 1.205996829409096E9 ; 5.171672146463831E8 ; 3.1258751689406338E10 ; 0.0
35 ; 1.723368788118811E7 ; 1.2060323520479543E9 ; 5.3435894660074115E8 ; 3.2464748518815434E10 ; 0.0
36 ; 1.726578717429649E7 ; 1.2060689874422064E9 ; 5.515926344819293E8 ; 3.3670780870863388E10 ; 0.0
37 ; 1.7306404038580813E7 ; 1.2061067044410553E9 ; 5.688584216562258E8 ; 3.4876849858305595E10 ; 0.0
38 ; 1.7338668583636135E7 ; 1.206145472046692E9 ; 5.861648256948066E8 ; 3.608295656274665E10 ; 0.0
39 ; 1.7366244460463606E7 ; 1.2061852594832902E9 ; 6.035034942784427E8 ; 3.728910203479334E10 ; 0.0
40 ; 1.7398297287718028E7 ; 1.2062260362594981E9 ; 6.208697387389064E8 ; 3.8495287294276634E10 ; 0.0
41 ; 1.742261602018311E7 ; 1.206267772224566E9 ; 6.382680360266244E8 ; 3.970151333053613E10 ; 0.0
42 ; 1.7454782011560734E7 ; 1.2063104376183171E9 ; 6.556906520468075E8 ; 4.09077811027607E10 ; 0.0
43 ; 1.747938783265018E7 ; 1.2063540031152122E9 ; 6.731454340583682E8 ; 4.211409154037901E10 ; 0.0
44 ; 1.749806175121901E7 ; 1.2063984398627763E9 ; 6.906248218910184E8 ; 4.3320445543494225E10 ; 0.0
45 ; 1.7525070707792025E7 ; 1.2064437195147007E9 ; 7.081228836422374E8 ; 4.4526843983357E10 ; 0.0
46 ; 1.754723905968477E7 ; 1.2064898142589319E9 ; 7.256479543500295E8 ; 4.5733287702871704E10 ; 0.0
47 ; 1.7561199610164255E7 ; 1.206536696841084E9 ; 7.431951934097142E8 ; 4.693977751713064E10 ; 0.0
48 ; 1.7577154301976435E7 ; 1.2065843405835075E9 ; 7.607563930198785E8 ; 4.8146314213971725E10 ; 0.0
49 ; 1.758944182450778E7 ; 1.2066327194003491E9 ; 7.78333547321855E8 ; 4.935289855455524E10 ; 0.0
50 ; 1.7608546612644333E7 ; 1.2066818078089342E9 ; 7.959229891463628E8 ; 5.055953127395559E10 ; 0.0
51 ; 1.762051121929341E7 ; 1.206731580937796E9 ; 8.135315357590071E8 ; 5.176621308176453E10 ; 0.0
52 ; 1.761878374495385E7 ; 1.2067820145316596E9 ; 8.311520469783005E8 ; 5.2972944662702324E10 ; 0.0
53 ; 1.763762989946148E7 ; 1.206833084953683E9 ; 8.487708307232543E8 ; 5.4179726677233986E10 ; 0.0
54 ; 1.7644465719538983E7 ; 1.2068847691852412E9 ; 8.664084606227158E8 ; 5.538655976218767E10 ; 0.0
55 ; 1.765505018810609E7 ; 1.2069370448235164E9 ; 8.840529263422548E8 ; 5.659344453137291E10 ; 0.0
56 ; 1.7666665435007468E7 ; 1.206989890077154E9 ; 9.017079765303608E8 ; 5.780038157619643E10 ; 0.0
57 ; 1.767337914104509E7 ; 1.2070432837602155E9 ; 9.193746419653683E8 ; 5.900737146627358E10 ; 0.0
58 ; 1.768002210796121E7 ; 1.207097205284649E9 ; 9.370480211064134E8 ; 6.02144147500338E10 ; 0.0
59 ; 1.768902880766461E7 ; 1.2071516346514785E9 ; 9.547280432143745E8 ; 6.142151195531845E10 ; 0.0
60 ; 1.7701959779078946E7 ; 1.2072065524408994E9 ; 9.724170720220392E8 ; 6.262866358996993E10 ; 0.0
61 ; 1.770973560543776E7 ; 1.2072619398014512E9 ; 9.901190318011181E8 ; 6.3835870142410835E10 ; 0.0
62 ; 1.7712953143681962E7 ; 1.2073177784384165E9 ; 1.0078287674065559E9 ; 6.504313208221229E10 ; 0.0
63 ; 1.7720902160292298E7 ; 1.207374050601597E9 ; 1.0255417205502379E9 ; 6.62504498606507E10 ; 0.0
64 ; 1.7732248763632797E7 ; 1.2074307390725834E9 ; 1.0432626227105302E9 ; 6.7457823911252304E10 ; 0.0
65 ; 1.7726044746453844E7 ; 1.2074878271516378E9 ; 1.0609948714741629E9 ; 6.866525465032489E10 ; 0.0
66 ; 1.773304801162124E7 ; 1.2075452986442933E9 ; 1.0787209162206168E9 ; 6.987274247747653E10 ; 0.0
67 ; 1.774459726075782E7 ; 1.207603137847756E9 ; 1.096453964232238E9 ; 7.108028777612082E10 ; 0.0
68 ; 1.77474248217201E7 ; 1.207661329537192E9 ; 1.114198561492996E9 ; 7.228789091396858E10 ; 0.0
69 ; 1.7753002233853742E7 ; 1.2077198589519749E9 ; 1.131945986314716E9 ; 7.349555224350577E10 ; 0.0
70 ; 1.7759262516413033E7 ; 1.2077787117819488E9 ; 1.14969898854857E9 ; 7.470327210245775E10 ; 0.0
71 ; 1.7758624401629843E7 ; 1.2078378741537652E9 ; 1.167458251064983E9 ; 7.59110508142397E10 ; 0.0
72 ; 1.7770128113961317E7 ; 1.207897332617342E9 ; 1.1852168754666128E9 ; 7.711888868839346E10 ; 0.0
73 ; 1.7775651043188654E7 ; 1.2079570741324825E9 ; 1.202987003580574E9 ; 7.83267860210108E10 ; 0.0
74 ; 1.7773390709550314E7 ; 1.2080170860556893E9 ; 1.2207626546237626E9 ; 7.953474309514328E10 ; 0.0
75 ; 1.7778141926316954E7 ; 1.2080773561272032E9 ; 1.238536045333313E9 ; 8.074276018119897E10 ; 0.0
76 ; 1.7785195253838565E7 ; 1.2081378724582915E9 ; 1.25631418725963E9 ; 8.195083753732617E10 ; 0.0
77 ; 1.7781293013322584E7 ; 1.2081986235188048E9 ; 1.2740993825134685E9 ; 8.315897540978447E10 ; 0.0
78 ; 1.7774855122563593E7 ; 1.2082595981250186E9 ; 1.291880675526791E9 ; 8.436717403330327E10 ; 0.0
79 ; 1.7762978084078494E7 ; 1.2083207854277735E9 ; 1.3096555306493547E9 ; 8.557543363142828E10 ; 0.0
80 ; 1.774517779606127E7 ; 1.2083821749009202E9 ; 1.3274185087334332E9 ; 8.678375441685606E10 ; 0.0
81 ; 1.77402782945455E7 ; 1.2084437563300838E9 ; 1.3451636865294945E9 ; 8.799213659175699E10 ; 0.0
82 ; 1.772776247937171E7 ; 1.2085055198017426E9 ; 1.36290396482404E9 ; 8.920058034808707E10 ; 0.0
83 ; 1.7719675794413105E7 ; 1.2085674556926303E9 ; 1.3806317273034117E9 ; 9.040908586788881E10 ; 0.0
84 ; 1.7703361172576062E7 ; 1.2086295546594615E9 ; 1.3983514030978248E9 ; 9.161765332358144E10 ; 0.0
85 ; 1.7691053799631596E7 ; 1.2086918076289773E9 ; 1.4160547642704008E9 ; 9.282628287824089E10 ; 0.0
86 ; 1.767952490076887E7 ; 1.2087542057883115E9 ; 1.4337458180700324E9 ; 9.403497468586987E10 ; 0.0
87 ; 1.766130286434508E7 ; 1.2088167405756736E9 ; 1.451425342970801E9 ; 9.524372889165819E10 ; 0.0
88 ; 1.7647897188787624E7 ; 1.2088794036713428E9 ; 1.4690866458351462E9 ; 9.645254563223386E10 ; 0.0
89 ; 1.764062102735179E7 ; 1.2089421869889698E9 ; 1.486734543023934E9 ; 9.76614250359052E10 ; 0.0
90 ; 1.7620415829080794E7 ; 1.2090050826671803E9 ; 1.5043751640512857E9 ; 9.887036722289417E10 ; 0.0
91 ; 1.7606228492943224E7 ; 1.2090680830614734E9 ; 1.5219955798803666E9 ; 1.0007937230556134E11 ; 0.0
92 ; 1.759486468412899E7 ; 1.2091311807364075E9 ; 1.5396018083733099E9 ; 1.0128844038862282E11 ; 0.0
93 ; 1.7571390449676022E7 ; 1.2091943684580703E9 ; 1.5571966730574389E9 ; 1.0249757156935922E11 ; 0.0
94 ; 1.7557402168315485E7 ; 1.2092576391868188E9 ; 1.574768063507115E9 ; 1.0370676593781729E11 ; 0.0
95 ; 1.754693075018876E7 ; 1.20932098607029E9 ; 1.5923254656754303E9 ; 1.049160235770041E11 ; 0.0
96 ; 1.7529043513442606E7 ; 1.209384402436668E9 ; 1.6098723964256191E9 ; 1.061253445630744E11 ; 0.0
97 ; 1.751043903176347E7 ; 1.2094478817882E9 ; 1.6274014399390616E9 ; 1.0733472896551106E11 ; 0.0
98 ; 1.7494482473764308E7 ; 1.2095114177949624E9 ; 1.6449118789708252E9 ; 1.0854417684729926E11 ; 0.0
99 ; 1.7480399125919655E7 ; 1.209575004288855E9 ; 1.6624063614445896E9 ; 1.0975368826509422E11 ; 0.0
100 ; 1.746011162338925E7 ; 1.2096386352578259E9 ; 1.6798867605705092E9 ; 1.1096326326938307E11 ; 0.0
101 ; 1.744547540096306E7 ; 1.2097023048403175E9 ; 1.6973468721938984E9 ; 1.121729019046409E11 ; 0.0
102 ; 1.7431242418771893E7 ; 1.2097660073199239E9 ; 1.7147923475948615E9 ; 1.1338260420948122E11 ; 0.0
103 ; 1.740130121967788E7 ; 1.2098297371202517E9 ; 1.7322235900136335E9 ; 1.1459237021680115E11 ; 0.0
104 ; 1.739241367293247E7 ; 1.2098934887999809E9 ; 1.7496248912333114E9 ; 1.158021999539214E11 ; 0.0
105 ; 1.736218368446759E7 ; 1.2099572570481164E9 ; 1.7670173049062438E9 ; 1.1701209344272139E11 ; 0.0
106 ; 1.7349524656278532E7 ; 1.2100210366794207E9 ; 1.7843794885907114E9 ; 1.182220506997695E11 ; 0.0
107 ; 1.7329475043806203E7 ; 1.2100848226300244E9 ; 1.80172901324699E9 ; 1.1943207173644893E11 ; 0.0
108 ; 1.730620267642297E7 ; 1.2101486099532082E9 ; 1.8190584882907963E9 ; 1.2064215655907895E11 ; 0.0
109 ; 1.728999281976246E7 ; 1.2102123938153477E9 ; 1.8363646909672194E9 ; 1.2185230516903215E11 ; 0.0
110 ; 1.726331142957989E7 ; 1.210276169492013E9 ; 1.8536546837869818E9 ; 1.230625175628475E11 ; 0.0
111 ; 1.7243650214857154E7 ; 1.2103399323642242E9 ; 1.8709179952165618E9 ; 1.2427279373233952E11 ; 0.0
112 ; 1.722933066556631E7 ; 1.2104036779148498E9 ; 1.888161645431419E9 ; 1.2548313366470375E11 ; 0.0
113 ; 1.720516849053592E7 ; 1.2104674017251437E9 ; 1.905390976096985E9 ; 1.266935373426186E11 ; 0.0
114 ; 1.7182059584001817E7 ; 1.21053109947142E9 ; 1.922596144587521E9 ; 1.2790400474434375E11 ; 0.0
115 ; 1.7154184699588273E7 ; 1.2105947669218528E9 ; 1.9397782041715229E9 ; 1.2911453584381517E11 ; 0.0
116 ; 1.7137677943628907E7 ; 1.2106583999334033E9 ; 1.9569323888711112E9 ; 1.3032513061073703E11 ; 0.0
117 ; 1.711248074131562E7 ; 1.2107219944488635E9 ; 1.9740700668147402E9 ; 1.3153578901067044E11 ; 0.0
118 ; 1.7084410992064852E7 ; 1.2107855464940162E9 ; 1.9911825475560558E9 ; 1.3274651100511931E11 ; 0.0
119 ; 1.7065207706952397E7 ; 1.2108490521749022E9 ; 2.0082669585481207E9 ; 1.3395729655161333E11 ; 0.0
120 ; 1.7040542150834437E7 ; 1.2109125076751952E9 ; 2.025332166255073E9 ; 1.3516814560378822E11 ; 0.0
121 ; 1.7021501805024587E7 ; 1.210975909253676E9 ; 2.0423727084059074E9 ; 1.3637905811146342E11 ; 0.0
122 ; 1.6995352833449796E7 ; 1.2110392532418046E9 ; 2.059394210210932E9 ; 1.375900340207171E11 ; 0.0
123 ; 1.6970331829731178E7 ; 1.211102536041386E9 ; 2.0763895630443819E9 ; 1.388010732739589E11 ; 0.0
124 ; 1.6939927064348646E7 ; 1.2111657541223223E9 ; 2.093359894874113E9 ; 1.4001217581000027E11 ; 0.0
125 ; 1.6912473701994985E7 ; 1.2112289040204556E9 ; 2.1102998219384618E9 ; 1.412233415641226E11 ; 0.0
126 ; 1.6896352647198044E7 ; 1.211291982335488E9 ; 2.1272122956404567E9 ; 1.4243457046814304E11 ; 0.0
127 ; 1.6863824601503137E7 ; 1.2113549857289844E9 ; 2.1441086482876546E9 ; 1.4364586245047852E11 ; 0.0
128 ; 1.6839389820637766E7 ; 1.211417910922448E9 ; 2.160972472889158E9 ; 1.448572174362075E11 ; 0.0
129 ; 1.6806099769396666E7 ; 1.211480754695472E9 ; 2.1778118627097955E9 ; 1.4606863534712994E11 ; 0.0
130 ; 1.677073520876316E7 ; 1.2115435138839583E9 ; 2.1946179624791923E9 ; 1.472801161018254E11 ; 0.0
131 ; 1.6738147969922926E7 ; 1.2116061853784034E9 ; 2.2113886976879554E9 ; 1.4849165961570938E11 ; 0.0
132 ; 1.670095594282787E7 ; 1.2116687661222508E9 ; 2.2281268456578784E9 ; 1.497032658010878E11 ; 0.0
133 ; 1.6656098436414056E7 ; 1.2117312531103022E9 ; 2.244827801600706E9 ; 1.5091493456721005E11 ; 0.0
134 ; 1.6614975450132921E7 ; 1.2117936433871906E9 ; 2.2614839000371203E9 ; 1.5212666582032034E11 ; 0.0
135 ; 1.6573866959945224E7 ; 1.211855934045907E9 ; 2.278098875487253E9 ; 1.5333845946370752E11 ; 0.0
136 ; 1.653200900893774E7 ; 1.2119181222263875E9 ; 2.2946727424471984E9 ; 1.5455031539775342E11 ; 0.0
137 ; 1.6484109855567422E7 ; 1.211980205114145E9 ; 2.311204751456136E9 ; 1.557622335199798E11 ; 0.0
138 ; 1.6445967902335227E7 ; 1.2120421799389567E9 ; 2.3276888613117037E9 ; 1.5697421372509393E11 ; 0.0
139 ; 1.6394857110525995E7 ; 1.2121040439736004E9 ; 2.344134829214039E9 ; 1.581862559050329E11 ; 0.0
140 ; 1.6352359334421396E7 ; 1.2121657945326319E9 ; 2.360529686324565E9 ; 1.593983599490065E11 ; 0.0
141 ; 1.6314094848034259E7 ; 1.2122274289712133E9 ; 2.376882045658986E9 ; 1.6061052574353912E11 ; 0.0
142 ; 1.6268334435731696E7 ; 1.2122889446839795E9 ; 2.3931961405070205E9 ; 1.6182275317251035E11 ; 0.0
143 ; 1.623579916562399E7 ; 1.2123503391039484E9 ; 2.4094644749427524E9 ; 1.6303504211719434E11 ; 0.0
144 ; 1.6187170622584788E7 ; 1.2124116097014692E9 ; 2.4257002741083765E9 ; 1.6424739245629828E11 ; 0.0
145 ; 1.6159373324474495E7 ; 1.2124727539832091E9 ; 2.4418874447309613E9 ; 1.6545980406599976E11 ; 0.0
146 ; 1.6129812437091189E7 ; 1.212533769491177E9 ; 2.4580468180554357E9 ; 1.6667227681998297E11 ; 0.0
147 ; 1.609755707895617E7 ; 1.2125946538017817E9 ; 2.474176630492527E9 ; 1.6788481058947415E11 ; 0.0
148 ; 1.607293092132299E7 ; 1.2126554045249228E9 ; 2.490274187571483E9 ; 1.6909740524327594E11 ; 0.0
149 ; 1.6048936867823452E7 ; 1.2127160193031178E9 ; 2.506347118492806E9 ; 1.7031006064780087E11 ; 0.0
150 ; 1.6018317316647766E7 ; 1.2127764958106532E9 ; 2.5223960553606296E9 ; 1.71522776667104E11 ; 0.0
151 ; 1.5990890425911328E7 ; 1.2128368317527747E9 ; 2.538414372677277E9 ; 1.7273555316291464E11 ; 0.0
152 ; 1.5962323581030186E7 ; 1.2128970248648977E9 ; 2.5544052631031885E9 ; 1.7394838999466742E11 ; 0.0
153 ; 1.593068560742091E7 ; 1.212957072911851E9 ; 2.570367586684219E9 ; 1.7516128701953232E11 ; 0.0
154 ; 1.590777607512929E7 ; 1.2130169736871443E9 ; 2.58629827229164E9 ; 1.7637424409244418E11 ; 0.0
155 ; 1.5877003885223169E7 ; 1.2130767250122626E9 ; 2.6022060483667693E9 ; 1.7758726106613132E11 ; 0.0
156 ; 1.5842356543656845E7 ; 1.213136324735985E9 ; 2.6180830522519927E9 ; 1.788003377911436E11 ; 0.0
157 ; 1.5824235164293084E7 ; 1.213195770733727E9 ; 2.6339254087956495E9 ; 1.8001347411587958E11 ; 0.0
158 ; 1.5788310540387869E7 ; 1.2132550609069052E9 ; 2.649749643959943E9 ; 1.812266698866133E11 ; 0.0
159 ; 1.5762364772537451E7 ; 1.2133141931823244E9 ; 2.665537954500331E9 ; 1.824399249475202E11 ; 0.0
160 ; 1.5734086837668959E7 ; 1.2133731655115862E9 ; 2.681300319272868E9 ; 1.836532391407025E11 ; 0.0
161 ; 1.5705449217861645E7 ; 1.2134319758705173E9 ; 2.697034406110537E9 ; 1.848666123062141E11 ; 0.0
162 ; 1.5671888928951329E7 ; 1.213490622258617E9 ; 2.7127398553283987E9 ; 1.8608004428208463E11 ; 0.0
163 ; 1.5645599961947462E7 ; 1.213549102698525E9 ; 2.72841174425735E9 ; 1.8729353490434323E11 ; 0.0
164 ; 1.5613398280938508E7 ; 1.2136074152355053E9 ; 2.7440573442192974E9 ; 1.8850708400704175E11 ; 0.0
165 ; 1.5581566236127649E7 ; 1.2136655579369502E9 ; 2.759670742500236E9 ; 1.8972069142227725E11 ; 0.0
166 ; 1.5557648155816205E7 ; 1.2137235288918974E9 ; 2.775252308736364E9 ; 1.909343569802142E11 ; 0.0
167 ; 1.5533253999852719E7 ; 1.213781326210568E9 ; 2.79080995689218E9 ; 1.921480805091061E11 ; 0.0
168 ; 1.54997834795059E7 ; 1.213838948023915E9 ; 2.8063432108920326E9 ; 1.9336186183531668E11 ; 0.0
169 ; 1.5465415227513041E7 ; 1.213896392483193E9 ; 2.8218429943715386E9 ; 1.945757007833406E11 ; 0.0
170 ; 1.5437994055502133E7 ; 1.2139536577595336E9 ; 2.8373084095990515E9 ; 1.957895971758238E11 ; 0.0
171 ; 1.5406452570602197E7 ; 1.2140107420435464E9 ; 2.8527464036545534E9 ; 1.970035508335833E11 ; 0.0
172 ; 1.5372252382582817E7 ; 1.2140676435449216E9 ; 2.868152856225156E9 ; 1.9821756157562686E11 ; 0.0
173 ; 1.535227967785084E7 ; 1.2141243604920537E9 ; 2.8835251086077385E9 ; 1.9943162921917178E11 ; 0.0
174 ; 1.5326855059568543E7 ; 1.2141808911316752E9 ; 2.898877388285589E9 ; 2.0064575357966385E11 ; 0.0
175 ; 1.5310502881125238E7 ; 1.2142372337285023E9 ; 2.9142042433451576E9 ; 2.0185993447079553E11 ; 0.0
176 ; 1.5281866013577718E7 ; 1.21429338656489E9 ; 2.929514746226283E9 ; 2.0307417170452405E11 ; 0.0
177 ; 1.5253751765313115E7 ; 1.214349347940504E9 ; 2.944796612239861E9 ; 2.0428846509108893E11 ; 0.0
178 ; 1.5237668698728465E7 ; 1.2144051161719975E9 ; 2.960050364005174E9 ; 2.0550281443902942E11 ; 0.0
179 ; 1.5210786565579567E7 ; 1.2144606895927033E9 ; 2.9752880327039027E9 ; 2.0671721955520142E11 ; 0.0
180 ; 1.519074759824847E7 ; 1.2145160665523307E9 ; 2.990498819269482E9 ; 2.0793168024479413E11 ; 0.0
181 ; 1.516519256862472E7 ; 1.214571245416678E9 ; 3.0056895668677306E9 ; 2.0914619631134647E11 ; 0.0
182 ; 1.5146718493306465E7 ; 1.2146262245673509E9 ; 3.020854759436355E9 ; 2.1036076755676315E11 ; 0.0
183 ; 1.5122387000118919E7 ; 1.2146810024014893E9 ; 3.0360014779296618E9 ; 2.115753937813305E11 ; 0.0
184 ; 1.5107065172382426E7 ; 1.2147355773315053E9 ; 3.0511238649297805E9 ; 2.12790074783732E11 ; 0.0
185 ; 1.507778865796673E7 ; 1.2147899477848287E9 ; 3.066230930102163E9 ; 2.140048103610635E11 ; 0.0
186 ; 1.5057114328269731E7 ; 1.2148441122036602E9 ; 3.0813087187601295E9 ; 2.1521960030884833E11 ; 0.0
187 ; 1.5035082464284118E7 ; 1.2148980690447323E9 ; 3.0963658330883994E9 ; 2.16434444421052E11 ; 0.0
188 ; 1.5006708485807735E7 ; 1.214951816779079E9 ; 3.1114009155526834E9 ; 2.1764934249009674E11 ; 0.0
189 ; 1.499082938679989E7 ; 1.2150053538918114E9 ; 3.1264076240384912E9 ; 2.1886429430687582E11 ; 0.0
190 ; 1.4962891778500581E7 ; 1.2150586788819025E9 ; 3.141398453425291E9 ; 2.2007929966076764E11 ; 0.0
191 ; 1.4943215470132824E7 ; 1.2151117902619758E9 ; 3.1563613452037916E9 ; 2.2129435833964954E11 ; 0.0
192 ; 1.492195551448488E7 ; 1.2151646865581036E9 ; 3.1713045606739244E9 ; 2.225094701299115E11 ; 0.0
193 ; 1.4896332107330142E7 ; 1.2152173663096094E9 ; 3.1862265161884093E9 ; 2.237246348164696E11 ; 0.0
194 ; 1.4875483775107458E7 ; 1.215269828068878E9 ; 3.2011228482957397E9 ; 2.249398521827792E11 ; 0.0
195 ; 1.4846426304240465E7 ; 1.2153220704011712E9 ; 3.215998332070847E9 ; 2.2615512201084808E11 ; 0.0
