CSV File for the Network on Day 15
1 - Minute m 
2 - Power Consumed at minute m 
3 - Power Produced at minute m 
4 - Energy Consumed since the beginning of the day 
5 - Energy Produced since the beginning of the day 
6 - Energy Lost since the beginning of the day 
 
0 ; 4.994849620416592E7 ; 1.0516072819786595E8 ; 0.0 ; 0.0 ; 0.0
1 ; 5.000192602005989E7 ; 1.0531504918552025E8 ; 4.994849620416592E7 ; 1.0516072819786595E8 ; 613.6199999999999
2 ; 5.005091769582216E7 ; 1.057780121484832E8 ; 9.995042222422582E7 ; 2.104757773833862E8 ; 1227.2399999999998
3 ; 5.012135230816404E7 ; 1.0654961708675481E8 ; 1.5000133992004797E8 ; 3.162537895318694E8 ; 1840.8599999999997
4 ; 5.018861014399208E7 ; 1.0762986400033505E8 ; 2.00122692228212E8 ; 4.228034066186242E8 ; 2454.4799999999996
5 ; 5.028075970532642E7 ; 1.0901875288922395E8 ; 2.5031130237220407E8 ; 5.3043327061895925E8 ; 3068.0999999999995
6 ; 5.040373233295596E7 ; 1.1071628375342146E8 ; 3.005920620775305E8 ; 6.394520235081832E8 ; 3681.7199999999993
7 ; 5.056551511228606E7 ; 1.1272245659292763E8 ; 3.5099579441048646E8 ; 7.501683072616047E8 ; 4295.339999999999
8 ; 5.081388360076947E7 ; 1.1503727140774244E8 ; 4.0156130952277255E8 ; 8.628907638545322E8 ; 4908.959999999999
9 ; 5.1172961039380476E7 ; 1.176607281978659E8 ; 4.52375193123542E8 ; 9.779280352622747E8 ; 5522.579999999999
10 ; 5.174311096813245E7 ; 1.2059282696329802E8 ; 5.035481541629225E8 ; 1.0955887634601407E9 ; 6136.199999999999
11 ; 5.263724907805672E7 ; 1.2383356770403877E8 ; 5.55291265131055E8 ; 1.2161815904234388E9 ; 6749.819999999999
12 ; 5.407213611851317E7 ; 1.2738295042008814E8 ; 6.079285142091117E8 ; 1.3400151581274776E9 ; 7363.439999999999
13 ; 5.54460826039917E7 ; 1.3124097511144614E8 ; 6.620006503276248E8 ; 1.4673981085475657E9 ; 7977.059999999999
14 ; 5.560951642183451E7 ; 1.3540764177811283E8 ; 7.174467329316165E8 ; 1.5986390836590118E9 ; 8590.679999999998
15 ; 5.5672262291781075E7 ; 1.398829504200881E8 ; 7.73056249353451E8 ; 1.7340467254371247E9 ; 9204.3
16 ; 5.57333399347727E7 ; 1.4466690103737208E8 ; 8.287285116452321E8 ; 1.8739296758572128E9 ; 9817.919999999998
17 ; 5.58015713741956E7 ; 1.497594936299647E8 ; 8.844618515800048E8 ; 2.018596576894585E9 ; 10431.539999999997
18 ; 5.586323292082502E7 ; 1.5516072819786593E8 ; 9.402634229542004E8 ; 2.1683560705245495E9 ; 11045.159999999996
19 ; 5.593544770116963E7 ; 1.6087060474107578E8 ; 9.961266558750254E8 ; 2.3235167987224154E9 ; 11658.779999999995
20 ; 5.5997827004263565E7 ; 1.668891232595943E8 ; 1.052062103576195E9 ; 2.4843874034634914E9 ; 12272.399999999994
21 ; 5.606831570860881E7 ; 1.7321628375342146E8 ; 1.1080599305804586E9 ; 2.651276526723086E9 ; 12886.019999999993
22 ; 5.613129964335148E7 ; 1.7985208622255725E8 ; 1.1641282462890675E9 ; 2.824492810476507E9 ; 13499.639999999992
23 ; 5.619528207029192E7 ; 1.8679653066700172E8 ; 1.220259545932419E9 ; 3.0043448966990643E9 ; 14113.259999999991
24 ; 5.626060910471559E7 ; 1.940496170867548E8 ; 1.276454828002711E9 ; 3.191141427366066E9 ; 14726.87999999999
25 ; 5.632808930137451E7 ; 2.0029938638E8 ; 1.3327154371074266E9 ; 3.385191044452821E9 ; 15340.499999999989
26 ; 5.639335296633348E7 ; 2.0029938638E8 ; 1.389043526408801E9 ; 3.585490430832821E9 ; 15954.119999999988
27 ; 5.6446175466586456E7 ; 2.0029938638E8 ; 1.4454368793751345E9 ; 3.785789817212821E9 ; 16567.739999999987
28 ; 5.652016808337822E7 ; 2.0029938638E8 ; 1.5018830548417208E9 ; 3.986089203592821E9 ; 17181.359999999986
29 ; 5.6573821649642125E7 ; 2.0029938638E8 ; 1.5584032229250991E9 ; 4.186388589972821E9 ; 17794.979999999985
30 ; 5.664668200701597E7 ; 2.0029938638E8 ; 1.6149770445747414E9 ; 4.386687976352821E9 ; 18408.599999999984
31 ; 5.669805945345844E7 ; 2.0029938638E8 ; 1.6716237265817573E9 ; 4.586987362732821E9 ; 19022.219999999983
32 ; 5.675225842778219E7 ; 2.0029938638E8 ; 1.7283217860352159E9 ; 4.787286749112822E9 ; 19635.839999999982
33 ; 5.682032522889976E7 ; 2.0029938638E8 ; 1.7850740444629982E9 ; 4.987586135492822E9 ; 20249.45999999998
34 ; 5.686650890010667E7 ; 2.0029938638E8 ; 1.8418943696918979E9 ; 5.187885521872822E9 ; 20863.07999999998
35 ; 5.692366295017657E7 ; 2.0029938638E8 ; 1.8987608785920045E9 ; 5.388184908252822E9 ; 21476.69999999998
36 ; 5.697470676868273E7 ; 2.0029938638E8 ; 1.955684541542181E9 ; 5.588484294632822E9 ; 22090.319999999978
37 ; 5.701917538907613E7 ; 2.0029938638E8 ; 2.0126592483108637E9 ; 5.788783681012822E9 ; 22703.939999999977
38 ; 5.707018427033836E7 ; 2.0029938638E8 ; 2.06967842369994E9 ; 5.989083067392822E9 ; 23317.559999999976
39 ; 5.712099673281595E7 ; 2.0029938638E8 ; 2.1267486079702783E9 ; 6.189382453772822E9 ; 23931.179999999975
40 ; 5.7159942811464146E7 ; 2.0029938638E8 ; 2.183869604703094E9 ; 6.3896818401528225E9 ; 24544.799999999974
41 ; 5.7201044712037824E7 ; 2.0029938638E8 ; 2.2410295475145583E9 ; 6.589981226532823E9 ; 25158.419999999973
42 ; 5.723689962528279E7 ; 2.0029938638E8 ; 2.2982305922265964E9 ; 6.790280612912823E9 ; 25772.03999999997
43 ; 5.727322009268938E7 ; 2.0029938638E8 ; 2.355467491851879E9 ; 6.990579999292823E9 ; 26385.65999999997
44 ; 5.73057449267731E7 ; 2.0029938638E8 ; 2.4127407119445686E9 ; 7.190879385672823E9 ; 26999.27999999997
45 ; 5.734110172313422E7 ; 2.0029938638E8 ; 2.4700464568713417E9 ; 7.391178772052823E9 ; 27612.89999999997
46 ; 5.736848454042052E7 ; 2.0029938638E8 ; 2.5273875585944757E9 ; 7.591478158432823E9 ; 28226.519999999968
47 ; 5.739483662089818E7 ; 2.0029938638E8 ; 2.5847560431348963E9 ; 7.791777544812823E9 ; 28840.139999999967
48 ; 5.742034846684483E7 ; 2.0029938638E8 ; 2.6421508797557945E9 ; 7.992076931192823E9 ; 29453.759999999966
49 ; 5.743700402123801E7 ; 2.0029938638E8 ; 2.6995712282226396E9 ; 8.192376317572824E9 ; 30067.379999999965
50 ; 5.7451781247582875E7 ; 2.0029938638E8 ; 2.7570082322438774E9 ; 8.392675703952824E9 ; 30680.999999999964
51 ; 5.747237321802274E7 ; 2.0029938638E8 ; 2.8144600134914603E9 ; 8.592975090332823E9 ; 31294.619999999963
52 ; 5.749151190650802E7 ; 2.0029938638E8 ; 2.871932386709483E9 ; 8.793274476712822E9 ; 31908.23999999996
53 ; 5.750206538568505E7 ; 2.0029938638E8 ; 2.929423898615991E9 ; 8.993573863092821E9 ; 32521.85999999996
54 ; 5.7516747901750624E7 ; 2.0029938638E8 ; 2.986925964001676E9 ; 9.19387324947282E9 ; 33135.47999999996
55 ; 5.753293141277106E7 ; 2.0029938638E8 ; 3.0444427119034266E9 ; 9.39417263585282E9 ; 33749.09999999996
56 ; 5.754782790608361E7 ; 2.0029938638E8 ; 3.101975643316198E9 ; 9.594472022232819E9 ; 34362.719999999965
57 ; 5.7559578102881715E7 ; 2.0029938638E8 ; 3.1595234712222815E9 ; 9.794771408612818E9 ; 34976.33999999997
58 ; 5.757495950206912E7 ; 2.0029938638E8 ; 3.2170830493251634E9 ; 9.995070794992817E9 ; 35589.95999999997
59 ; 5.758762066253381E7 ; 2.0029938638E8 ; 3.2746580088272324E9 ; 1.0195370181372816E10 ; 36203.57999999997
60 ; 5.7600654038166635E7 ; 2.0029938638E8 ; 3.332245629489766E9 ; 1.0395669567752815E10 ; 36817.199999999975
61 ; 5.761140875954734E7 ; 2.0029938638E8 ; 3.3898462835279326E9 ; 1.0595968954132814E10 ; 37430.81999999998
62 ; 5.76173202292069E7 ; 2.0029938638E8 ; 3.44745769228748E9 ; 1.0796268340512814E10 ; 38044.43999999998
63 ; 5.762770454755741E7 ; 2.0029938638E8 ; 3.505075012516687E9 ; 1.0996567726892813E10 ; 38658.05999999998
64 ; 5.763605182570932E7 ; 2.0029938638E8 ; 3.5627027170642443E9 ; 1.1196867113272812E10 ; 39271.679999999986
65 ; 5.763930227603789E7 ; 2.0029938638E8 ; 3.6203387688899536E9 ; 1.1397166499652811E10 ; 39885.29999999999
66 ; 5.764496119358035E7 ; 2.0029938638E8 ; 3.6779780711659913E9 ; 1.159746588603281E10 ; 40498.91999999999
67 ; 5.7660646017485805E7 ; 2.0029938638E8 ; 3.7356230323595715E9 ; 1.179776527241281E10 ; 41112.53999999999
68 ; 5.765923679191582E7 ; 2.0029938638E8 ; 3.793283678377057E9 ; 1.1998064658792809E10 ; 41726.159999999996
69 ; 5.7672003647364765E7 ; 2.0029938638E8 ; 3.850942915168973E9 ; 1.2198364045172808E10 ; 42339.78
70 ; 5.767492408603618E7 ; 2.0029938638E8 ; 3.9086149188163376E9 ; 1.2398663431552807E10 ; 42953.4
71 ; 5.768160322109965E7 ; 2.0029938638E8 ; 3.966289842902374E9 ; 1.2598962817932806E10 ; 43567.020000000004
72 ; 5.768437402277253E7 ; 2.0029938638E8 ; 4.0239714461234736E9 ; 1.2799262204312805E10 ; 44180.64000000001
73 ; 5.769567549401082E7 ; 2.0029938638E8 ; 4.081655820146246E9 ; 1.2999561590692804E10 ; 44794.26000000001
74 ; 5.768884639093219E7 ; 2.0029938638E8 ; 4.139351495640257E9 ; 1.3199860977072803E10 ; 45407.88000000001
75 ; 5.7690120654813156E7 ; 2.0029938638E8 ; 4.197040342031189E9 ; 1.3400160363452803E10 ; 46021.500000000015
76 ; 5.769974132516295E7 ; 2.0029938638E8 ; 4.2547304626860023E9 ; 1.3600459749832802E10 ; 46635.12000000002
77 ; 5.769930600916809E7 ; 2.0029938638E8 ; 4.312430204011166E9 ; 1.3800759136212801E10 ; 47248.74000000002
78 ; 5.768365553797268E7 ; 2.0029938638E8 ; 4.370129510020333E9 ; 1.40010585225928E10 ; 47862.36000000002
79 ; 5.766475129925088E7 ; 2.0029938638E8 ; 4.427813165558306E9 ; 1.42013579089728E10 ; 48475.980000000025
80 ; 5.7652461569851205E7 ; 2.0029938638E8 ; 4.485477916857556E9 ; 1.4401657295352798E10 ; 49089.60000000003
81 ; 5.764218235156731E7 ; 2.0029938638E8 ; 4.543130378427407E9 ; 1.4601956681732798E10 ; 49703.22000000003
82 ; 5.760774309814693E7 ; 2.0029938638E8 ; 4.600772560778975E9 ; 1.4802256068112797E10 ; 50316.84000000003
83 ; 5.759419156245849E7 ; 2.0029938638E8 ; 4.658380303877122E9 ; 1.5002555454492796E10 ; 50930.460000000036
84 ; 5.758004372113422E7 ; 2.0029938638E8 ; 4.71597449543958E9 ; 1.5202854840872795E10 ; 51544.08000000004
85 ; 5.756211797221544E7 ; 2.0029938638E8 ; 4.773554539160714E9 ; 1.5403154227252794E10 ; 52157.70000000004
86 ; 5.753978018265337E7 ; 2.0029938638E8 ; 4.83111665713293E9 ; 1.5603453613632793E10 ; 52771.32000000004
87 ; 5.7514589346201345E7 ; 2.0029938638E8 ; 4.888656437315583E9 ; 1.5803753000012793E10 ; 53384.940000000046
88 ; 5.750113628678057E7 ; 2.0029938638E8 ; 4.946171026661784E9 ; 1.6004052386392792E10 ; 53998.56000000005
89 ; 5.748394138079037E7 ; 2.0029938638E8 ; 5.003672162948565E9 ; 1.620435177277279E10 ; 54612.18000000005
90 ; 5.744526367943481E7 ; 2.0029938638E8 ; 5.061156104329355E9 ; 1.640465115915279E10 ; 55225.800000000054
91 ; 5.7425181020943835E7 ; 2.0029938638E8 ; 5.11860136800879E9 ; 1.660495054553279E10 ; 55839.42000000006
92 ; 5.740634877749493E7 ; 2.0029938638E8 ; 5.176026549029734E9 ; 1.6805249931912788E10 ; 56453.04000000006
93 ; 5.737807792141188E7 ; 2.0029938638E8 ; 5.233432897807229E9 ; 1.7005549318292788E10 ; 57066.66000000006
94 ; 5.736084523020412E7 ; 2.0029938638E8 ; 5.290810975728641E9 ; 1.7205848704672787E10 ; 57680.280000000064
95 ; 5.732685405200135E7 ; 2.0029938638E8 ; 5.348171820958845E9 ; 1.7406148091052788E10 ; 58293.90000000007
96 ; 5.730895485999735E7 ; 2.0029938638E8 ; 5.405498675010846E9 ; 1.760644747743279E10 ; 58907.52000000007
97 ; 5.728120734040369E7 ; 2.0029938638E8 ; 5.462807629870844E9 ; 1.780674686381279E10 ; 59521.14000000007
98 ; 5.72556499129984E7 ; 2.0029938638E8 ; 5.520088837211247E9 ; 1.800704625019279E10 ; 60134.760000000075
99 ; 5.722793296628856E7 ; 2.0029938638E8 ; 5.577344487124246E9 ; 1.8207345636572792E10 ; 60748.38000000008
100 ; 5.720305459213181E7 ; 2.0029938638E8 ; 5.634572420090534E9 ; 1.8407645022952793E10 ; 61362.00000000008
101 ; 5.716574344459368E7 ; 2.0029938638E8 ; 5.691775474682666E9 ; 1.8607944409332794E10 ; 61975.62000000008
102 ; 5.713718991187278E7 ; 2.0029938638E8 ; 5.748941218127259E9 ; 1.8808243795712795E10 ; 62589.240000000085
103 ; 5.7114017744409956E7 ; 2.0029938638E8 ; 5.806078408039132E9 ; 1.9008543182092796E10 ; 63202.86000000009
104 ; 5.708376415065947E7 ; 2.0029938638E8 ; 5.863192425783542E9 ; 1.9208842568472797E10 ; 63816.48000000009
105 ; 5.705238476011334E7 ; 2.0029938638E8 ; 5.920276189934201E9 ; 1.94091419548528E10 ; 64430.10000000009
106 ; 5.701449060607353E7 ; 2.0029938638E8 ; 5.977328574694315E9 ; 1.96094413412328E10 ; 65043.720000000096
107 ; 5.698976847381935E7 ; 2.0029938638E8 ; 6.034343065300388E9 ; 1.98097407276128E10 ; 65657.3400000001
108 ; 5.695523965273616E7 ; 2.0029938638E8 ; 6.091332833774208E9 ; 2.00100401139928E10 ; 66270.9600000001
109 ; 5.691969002378552E7 ; 2.0029938638E8 ; 6.148288073426944E9 ; 2.0210339500372803E10 ; 66884.58000000009
110 ; 5.688658723632612E7 ; 2.0029938638E8 ; 6.205207763450729E9 ; 2.0410638886752804E10 ; 67498.20000000008
111 ; 5.685569852889565E7 ; 2.0029938638E8 ; 6.262094350687056E9 ; 2.0610938273132805E10 ; 68111.82000000008
112 ; 5.681480102300845E7 ; 2.0029938638E8 ; 6.318950049215951E9 ; 2.0811237659512806E10 ; 68725.44000000008
113 ; 5.678039796369269E7 ; 2.0029938638E8 ; 6.375764850238959E9 ; 2.1011537045892807E10 ; 69339.06000000007
114 ; 5.674583472316945E7 ; 2.0029938638E8 ; 6.432545248202652E9 ; 2.1211836432272808E10 ; 69952.68000000007
115 ; 5.670768434616663E7 ; 2.0029938638E8 ; 6.489291082925821E9 ; 2.141213581865281E10 ; 70566.30000000006
116 ; 5.667083532957295E7 ; 2.0029938638E8 ; 6.545998767271988E9 ; 2.161243520503281E10 ; 71179.92000000006
117 ; 5.6630395440142915E7 ; 2.0029938638E8 ; 6.602669602601561E9 ; 2.181273459141281E10 ; 71793.54000000005
118 ; 5.65920136201669E7 ; 2.0029938638E8 ; 6.659299998041703E9 ; 2.2013033977792812E10 ; 72407.16000000005
119 ; 5.655435261923991E7 ; 2.0029938638E8 ; 6.71589201166187E9 ; 2.2213333364172813E10 ; 73020.78000000004
120 ; 5.6515987041826226E7 ; 2.0029938638E8 ; 6.77244636428111E9 ; 2.2413632750552814E10 ; 73634.40000000004
121 ; 5.64729231061993E7 ; 2.0029938638E8 ; 6.828962351322936E9 ; 2.2613932136932816E10 ; 74248.02000000003
122 ; 5.643465030635243E7 ; 2.0029938638E8 ; 6.885435274429135E9 ; 2.2814231523312817E10 ; 74861.64000000003
123 ; 5.6391312072670884E7 ; 2.0029938638E8 ; 6.941869924735488E9 ; 2.3014530909692818E10 ; 75475.26000000002
124 ; 5.634976321358042E7 ; 2.0029938638E8 ; 6.998261236808159E9 ; 2.321483029607282E10 ; 76088.88000000002
125 ; 5.630877357253063E7 ; 2.0029938638E8 ; 7.054611000021739E9 ; 2.341512968245282E10 ; 76702.50000000001
126 ; 5.626122870197407E7 ; 2.0029938638E8 ; 7.11091977359427E9 ; 2.361542906883282E10 ; 77316.12000000001
127 ; 5.622012616244097E7 ; 2.0029938638E8 ; 7.167181002296244E9 ; 2.3815728455212822E10 ; 77929.74
128 ; 5.61761778749852E7 ; 2.0029938638E8 ; 7.223401128458685E9 ; 2.4016027841592823E10 ; 78543.36
129 ; 5.6127152500682585E7 ; 2.0029938638E8 ; 7.27957730633367E9 ; 2.4216327227972824E10 ; 79156.98
130 ; 5.6079136277486555E7 ; 2.0029938638E8 ; 7.3357044588343525E9 ; 2.4416626614352825E10 ; 79770.59999999999
131 ; 5.602243501454276E7 ; 2.0029938638E8 ; 7.391783595111839E9 ; 2.4616926000732826E10 ; 80384.21999999999
132 ; 5.594998527675436E7 ; 2.0029938638E8 ; 7.447806030126382E9 ; 2.4817225387112827E10 ; 80997.83999999998
133 ; 5.588956975960258E7 ; 2.0029938638E8 ; 7.503756015403136E9 ; 2.501752477349283E10 ; 81611.45999999998
134 ; 5.583559947838937E7 ; 2.0029938638E8 ; 7.559645585162739E9 ; 2.521782415987283E10 ; 82225.07999999997
135 ; 5.576757076285738E7 ; 2.0029938638E8 ; 7.615481184641129E9 ; 2.541812354625283E10 ; 82838.69999999997
136 ; 5.569620489293949E7 ; 2.0029938638E8 ; 7.671248755403986E9 ; 2.561842293263283E10 ; 83452.31999999996
137 ; 5.562897466972127E7 ; 2.0029938638E8 ; 7.726944960296926E9 ; 2.5818722319012833E10 ; 84065.93999999996
138 ; 5.5567691236030124E7 ; 2.0029938638E8 ; 7.782573934966647E9 ; 2.6019021705392834E10 ; 84679.55999999995
139 ; 5.550098232371894E7 ; 2.0029938638E8 ; 7.838141626202678E9 ; 2.6219321091772835E10 ; 85293.17999999995
140 ; 5.543930235259514E7 ; 2.0029938638E8 ; 7.893642608526397E9 ; 2.6419620478152836E10 ; 85906.79999999994
141 ; 5.536776763690521E7 ; 2.0029938638E8 ; 7.949081910878992E9 ; 2.6619919864532837E10 ; 86520.41999999994
142 ; 5.5298669981656276E7 ; 2.0029938638E8 ; 8.004449678515898E9 ; 2.6820219250912838E10 ; 87134.03999999994
143 ; 5.523164544398327E7 ; 2.0029938638E8 ; 8.059748348497554E9 ; 2.702051863729284E10 ; 87747.65999999993
144 ; 5.515463130856006E7 ; 2.0029938638E8 ; 8.114979993941537E9 ; 2.722081802367284E10 ; 88361.27999999993
145 ; 5.510829896756269E7 ; 2.0029938638E8 ; 8.170134625250097E9 ; 2.742111741005284E10 ; 88974.89999999992
146 ; 5.506060037824172E7 ; 2.0029938638E8 ; 8.22524292421766E9 ; 2.7621416796432842E10 ; 89588.51999999992
147 ; 5.5011459608485E7 ; 2.0029938638E8 ; 8.2803035245959015E9 ; 2.7821716182812843E10 ; 90202.13999999991
148 ; 5.496389886166234E7 ; 2.0029938638E8 ; 8.335314984204387E9 ; 2.8022015569192844E10 ; 90815.75999999991
149 ; 5.4909743698590174E7 ; 2.0029938638E8 ; 8.390278883066049E9 ; 2.8222314955572845E10 ; 91429.3799999999
150 ; 5.4864718682883665E7 ; 2.0029938638E8 ; 8.445188626764639E9 ; 2.8422614341952847E10 ; 92042.9999999999
151 ; 5.481958555781433E7 ; 2.0029938638E8 ; 8.500053345447522E9 ; 2.8622913728332848E10 ; 92656.6199999999
152 ; 5.4768123308468744E7 ; 2.0029938638E8 ; 8.554872931005337E9 ; 2.882321311471285E10 ; 93270.23999999989
153 ; 5.472114798144978E7 ; 2.0029938638E8 ; 8.609641054313805E9 ; 2.902351250109285E10 ; 93883.85999999988
154 ; 5.466661855515658E7 ; 2.0029938638E8 ; 8.664362202295254E9 ; 2.922381188747285E10 ; 94497.47999999988
155 ; 5.4623619981092766E7 ; 2.0029938638E8 ; 8.71902882085041E9 ; 2.942411127385285E10 ; 95111.09999999987
156 ; 5.457338175329692E7 ; 2.0029938638E8 ; 8.773652440831503E9 ; 2.9624410660232853E10 ; 95724.71999999987
157 ; 5.452456816130722E7 ; 2.0029938638E8 ; 8.8282258225848E9 ; 2.9824710046612854E10 ; 96338.33999999987
158 ; 5.446866658275638E7 ; 2.0029938638E8 ; 8.882750390746107E9 ; 3.0025009432992855E10 ; 96951.95999999986
159 ; 5.44198603510964E7 ; 2.0029938638E8 ; 8.937219057328863E9 ; 3.0225308819372856E10 ; 97565.57999999986
160 ; 5.4372921926533245E7 ; 2.0029938638E8 ; 8.99163891767996E9 ; 3.0425608205752857E10 ; 98179.19999999985
161 ; 5.431886430600682E7 ; 2.0029938638E8 ; 9.046011839606493E9 ; 3.062590759213286E10 ; 98792.81999999985
162 ; 5.426299337287949E7 ; 2.0029938638E8 ; 9.1003307039125E9 ; 3.082620697851286E10 ; 99406.43999999984
163 ; 5.420908836998786E7 ; 2.0029938638E8 ; 9.15459369728538E9 ; 3.102650636489286E10 ; 100020.05999999984
164 ; 5.4165377035748266E7 ; 2.0029938638E8 ; 9.208802785655367E9 ; 3.122680575127286E10 ; 100633.67999999983
165 ; 5.4107122435320586E7 ; 2.0029938638E8 ; 9.262968162691114E9 ; 3.1427105137652863E10 ; 101247.29999999983
166 ; 5.405400739269143E7 ; 2.0029938638E8 ; 9.317075285126434E9 ; 3.1627404524032864E10 ; 101860.91999999982
167 ; 5.399759439488004E7 ; 2.0029938638E8 ; 9.371129292519125E9 ; 3.1827703910412865E10 ; 102474.53999999982
168 ; 5.395442193811486E7 ; 2.0029938638E8 ; 9.425126886914005E9 ; 3.2028003296792866E10 ; 103088.15999999981
169 ; 5.39018483712667E7 ; 2.0029938638E8 ; 9.47908130885212E9 ; 3.2228302683172867E10 ; 103701.77999999981
170 ; 5.384221752565384E7 ; 2.0029938638E8 ; 9.532983157223387E9 ; 3.2428602069552868E10 ; 104315.3999999998
171 ; 5.3793696286232546E7 ; 2.0029938638E8 ; 9.58682537474904E9 ; 3.262890145593287E10 ; 104929.0199999998
172 ; 5.373128833525381E7 ; 2.0029938638E8 ; 9.640619071035273E9 ; 3.282920084231287E10 ; 105542.6399999998
173 ; 5.3691738730586484E7 ; 2.0029938638E8 ; 9.694350359370527E9 ; 3.302950022869287E10 ; 106156.25999999979
174 ; 5.3653655575983E7 ; 2.0029938638E8 ; 9.748042098101114E9 ; 3.3229799615072872E10 ; 106769.87999999979
175 ; 5.362036420697931E7 ; 2.0029938638E8 ; 9.801695753677097E9 ; 3.3430099001452873E10 ; 107383.49999999978
176 ; 5.358666550106835E7 ; 2.0029938638E8 ; 9.855316117884077E9 ; 3.3630398387832874E10 ; 107997.11999999978
177 ; 5.355283913109418E7 ; 2.0029938638E8 ; 9.908902783385145E9 ; 3.3830697774212875E10 ; 108610.73999999977
178 ; 5.352384125971757E7 ; 2.0029938638E8 ; 9.96245562251624E9 ; 3.4030997160592876E10 ; 109224.35999999977
179 ; 5.34856933900859E7 ; 2.0029938638E8 ; 1.0015979463775957E10 ; 3.4231296546972878E10 ; 109837.97999999976
180 ; 5.346896781069681E7 ; 2.0029938638E8 ; 1.0069465157166042E10 ; 3.4431595933352875E10 ; 110451.59999999976
181 ; 5.3426679564862244E7 ; 2.0029938638E8 ; 1.012293412497674E10 ; 3.463189531973287E10 ; 111065.21999999975
