CSV File for the Network on Day 314
1 - Minute m 
2 - Power Consumed at minute m 
3 - Power Produced at minute m 
4 - Energy Consumed since the beginning of the day 
5 - Energy Produced since the beginning of the day 
6 - Energy Lost since the beginning of the day 
 
0 ; 3.899352540150438E7 ; 6.379342890150458E8 ; 0.0 ; 0.0 ; 0.0
1 ; 3.902625501868356E7 ; 6.388440447540836E8 ; 3.899352540150438E7 ; 6.379342890150458E8 ; 0.0
2 ; 3.907202196293804E7 ; 6.416073191953268E8 ; 7.801978042018795E7 ; 1.2767783337691293E9 ; 0.0
3 ; 3.91266717566613E7 ; 6.462241239227695E8 ; 1.1709180238312599E8 ; 1.918385652964456E9 ; 0.0
4 ; 3.918323077534934E7 ; 6.52694469258878E8 ; 1.562184741397873E8 ; 2.5646097768872256E9 ; 0.0
5 ; 3.926052612390336E7 ; 6.610183642276232E8 ; 1.9540170491513664E8 ; 3.217304246146104E9 ; 0.0
6 ; 3.935618410163497E7 ; 6.711958165217785E8 ; 2.3466223103904E8 ; 3.878322610373727E9 ; 0.0
7 ; 3.948468438325351E7 ; 6.832268324747462E8 ; 2.7401841514067495E8 ; 4.549518426895505E9 ; 0.0
8 ; 3.967119858260247E7 ; 6.971114170371649E8 ; 3.1350309952392846E8 ; 5.232745259370251E9 ; 0.0
9 ; 3.9957103601564854E7 ; 7.128495737584989E8 ; 3.531742981065309E8 ; 5.929856676407415E9 ; 0.0
10 ; 4.039292196518518E7 ; 7.304413047737677E8 ; 3.931314017080958E8 ; 6.642706250165915E9 ; 0.0
11 ; 4.1085000741255224E7 ; 7.498866107955362E8 ; 4.3352432367328095E8 ; 7.373147554939682E9 ; 0.0
12 ; 4.21886318064003E7 ; 7.711854911112393E8 ; 4.746093244145362E8 ; 8.123034165735218E9 ; 0.0
13 ; 4.3257819045719385E7 ; 7.943379435858573E8 ; 5.167979562209365E8 ; 8.894219656846457E9 ; 0.0
14 ; 4.3390437961525396E7 ; 8.193439646699266E8 ; 5.600557752666559E8 ; 9.688557600432314E9 ; 0.0
15 ; 4.344031855981118E7 ; 8.462035494128083E8 ; 6.034462132281814E8 ; 1.0507901565102242E10 ; 0.0
16 ; 4.3487849346326895E7 ; 8.749166914811002E8 ; 6.468865317879926E8 ; 1.1354105114515049E10 ; 0.0
17 ; 4.355239138458227E7 ; 9.054833831820289E8 ; 6.903743811343195E8 ; 1.222902180599615E10 ; 0.0
18 ; 4.360260910651289E7 ; 9.37903615491623E8 ; 7.339267725189018E8 ; 1.3134505189178179E10 ; 0.0
19 ; 4.365103804771053E7 ; 9.72177378087417E8 ; 7.775293816254147E8 ; 1.4072408804669802E10 ; 0.0
20 ; 4.370292365359668E7 ; 1.0083046593854159E9 ; 8.211804196731253E8 ; 1.504458618275722E10 ; 0.0
21 ; 4.376487639367667E7 ; 1.0462854465810107E9 ; 8.648833433267219E8 ; 1.6052890842142635E10 ; 0.0
22 ; 4.380747562490238E7 ; 1.086119725693509E9 ; 9.086482197203985E8 ; 1.7099176288723646E10 ; 0.0
23 ; 4.386236951135029E7 ; 1.1278074816139286E9 ; 9.524556953453009E8 ; 1.8185296014417156E10 ; 0.0
24 ; 4.392052331761077E7 ; 1.1713486981556761E9 ; 9.963180648566512E8 ; 1.9313103496031086E10 ; 0.0
25 ; 4.397539978474409E7 ; 1.2088716034968374E9 ; 1.0402385881742619E9 ; 2.0484452194186764E10 ; 0.0
26 ; 4.403143978482455E7 ; 1.2088974664568524E9 ; 1.084213987959006E9 ; 2.16933237976836E10 ; 0.0
27 ; 4.408177843997171E7 ; 1.2089248837029607E9 ; 1.1282454277438307E9 ; 2.2902221264140453E10 ; 0.0
28 ; 4.413675042608604E7 ; 1.2089538352891955E9 ; 1.1723272061838024E9 ; 2.4111146147843414E10 ; 0.0
29 ; 4.4183055347391576E7 ; 1.208984300475164E9 ; 1.2164639566098883E9 ; 2.532009998313261E10 ; 0.0
30 ; 4.423707443044722E7 ; 1.2090162577859402E9 ; 1.26064701195728E9 ; 2.6529084283607773E10 ; 0.0
31 ; 4.42891995686544E7 ; 1.2090496850721807E9 ; 1.3048840863877273E9 ; 2.7738100541393715E10 ; 0.0
32 ; 4.4336012514292665E7 ; 1.2090845595701227E9 ; 1.3491732859563816E9 ; 2.8947150226465897E10 ; 0.0
33 ; 4.438146263875228E7 ; 1.2091208579611459E9 ; 1.3935092984706743E9 ; 3.015623478603602E10 ; 0.0
34 ; 4.442149857363657E7 ; 1.2091585564306061E9 ; 1.4378907611094265E9 ; 3.1365355643997166E10 ; 0.0
35 ; 4.4469497450885504E7 ; 1.209197630725657E9 ; 1.482312259683063E9 ; 3.2574514200427773E10 ; 0.0
36 ; 4.4509917995545745E7 ; 1.2092380562118208E9 ; 1.5267817571339486E9 ; 3.378371183115343E10 ; 0.0
37 ; 4.4561070051337466E7 ; 1.2092798079280798E9 ; 1.5712916751294942E9 ; 3.499294988736525E10 ; 0.0
38 ; 4.459738202738241E7 ; 1.2093228606402948E9 ; 1.6158527451808317E9 ; 3.620222969529333E10 ; 0.0
39 ; 4.463525581947638E7 ; 1.2093671888927786E9 ; 1.660450127208214E9 ; 3.7411552555933624E10 ; 0.0
40 ; 4.46823287157556E7 ; 1.2094127670578797E9 ; 1.7050853830276904E9 ; 3.86209197448264E10 ; 0.0
41 ; 4.4716521135951005E7 ; 1.2094595693834586E9 ; 1.749767711743446E9 ; 3.983033251188428E10 ; 0.0
42 ; 4.475214812494354E7 ; 1.2095075700381567E9 ; 1.7944842328793972E9 ; 4.103979208126774E10 ; 0.0
43 ; 4.4778941482765526E7 ; 1.2095567431543899E9 ; 1.8392363810043406E9 ; 4.224929965130589E10 ; 0.0
44 ; 4.481228583427506E7 ; 1.2096070628690114E9 ; 1.884015322487106E9 ; 4.345885639446028E10 ; 0.0
45 ; 4.4838677251567736E7 ; 1.2096585033616152E9 ; 1.928827608321381E9 ; 4.466846345732929E10 ; 0.0
46 ; 4.487204078844738E7 ; 1.209711038890465E9 ; 1.973666285572949E9 ; 4.587812196069091E10 ; 0.0
47 ; 4.4891696668813005E7 ; 1.2097646438260586E9 ; 2.0185383263613963E9 ; 4.7087832999581375E10 ; 0.0
48 ; 4.4914835475912854E7 ; 1.2098192926823382E9 ; 2.0634300230302093E9 ; 4.829759764340743E10 ; 0.0
49 ; 4.4935354046747625E7 ; 1.2098749601455882E9 ; 2.108344858506122E9 ; 4.950741693608977E10 ; 0.0
50 ; 4.496020893089166E7 ; 1.2099316211010609E9 ; 2.15328021255287E9 ; 5.071729189623536E10 ; 0.0
51 ; 4.497735678752771E7 ; 1.2099892506573896E9 ; 2.1982404214837613E9 ; 5.192722351733642E10 ; 0.0
52 ; 4.4991904704846665E7 ; 1.210047824168846E9 ; 2.243217778271289E9 ; 5.3137212767993805E10 ; 0.0
53 ; 4.500920158058613E7 ; 1.210107317255525E9 ; 2.2882096829761357E9 ; 5.434726059216265E10 ; 0.0
54 ; 4.502086993336555E7 ; 1.2101677058215253E9 ; 2.3332188845567217E9 ; 5.5557367909418175E10 ; 0.0
55 ; 4.504264952109586E7 ; 1.2102289660712128E9 ; 2.378239754490087E9 ; 5.67675356152397E10 ; 0.0
56 ; 4.505507417895024E7 ; 1.210291074523652E9 ; 2.423282404011183E9 ; 5.797776458131091E10 ; 0.0
57 ; 4.5074390384525225E7 ; 1.2103540080252988E9 ; 2.468337478190133E9 ; 5.9188055655834564E10 ; 0.0
58 ; 4.508463883131094E7 ; 1.210417743761036E9 ; 2.5134118685746584E9 ; 6.039840966385986E10 ; 0.0
59 ; 4.510806906874358E7 ; 1.2104822592636526E9 ; 2.558496507405969E9 ; 6.1608827407620895E10 ; 0.0
60 ; 4.511871664438151E7 ; 1.2105475324218519E9 ; 2.603604576474713E9 ; 6.2819309666884544E10 ; 0.0
61 ; 4.513278473506819E7 ; 1.2106135414868836E9 ; 2.6487232931190944E9 ; 6.40298571993064E10 ; 0.0
62 ; 4.514518052586394E7 ; 1.210680265077883E9 ; 2.6938560778541627E9 ; 6.524047074079328E10 ; 0.0
63 ; 4.516042105776694E7 ; 1.210747682186012E9 ; 2.739001258380027E9 ; 6.645115100587116E10 ; 0.0
64 ; 4.5172499046265446E7 ; 1.2108157721774814E9 ; 2.7841616794377937E9 ; 6.7661898688057175E10 ; 0.0
65 ; 4.518832125443478E7 ; 1.2108845147955396E9 ; 2.8293341784840593E9 ; 6.887271446023465E10 ; 0.0
66 ; 4.5195957076803386E7 ; 1.210953890161509E9 ; 2.874522499738494E9 ; 7.008359897503018E10 ; 0.0
67 ; 4.5205975409318306E7 ; 1.2110238787749429E9 ; 2.919718456815297E9 ; 7.12945528651917E10 ; 0.0
68 ; 4.521912735579277E7 ; 1.2110944615129783E9 ; 2.9649244322246156E9 ; 7.250557674396664E10 ; 0.0
69 ; 4.5233311755728215E7 ; 1.2111656196289582E9 ; 3.0101435595804086E9 ; 7.371667120547963E10 ; 0.0
70 ; 4.524694975764492E7 ; 1.211237334750382E9 ; 3.055376871336137E9 ; 7.492783682510858E10 ; 0.0
71 ; 4.525636677416172E7 ; 1.2113095888762555E9 ; 3.100623821093782E9 ; 7.613907415985896E10 ; 0.0
72 ; 4.526864396905824E7 ; 1.2113823643738945E9 ; 3.145880187867944E9 ; 7.735038374873521E10 ; 0.0
73 ; 4.5270954369372614E7 ; 1.211455643975241E9 ; 3.191148831837002E9 ; 7.856176611310912E10 ; 0.0
74 ; 4.52807483582647E7 ; 1.2115294107727437E9 ; 3.2364197862063746E9 ; 7.977322175708435E10 ; 0.0
75 ; 4.529104329557267E7 ; 1.2116036482148533E9 ; 3.2817005345646396E9 ; 8.09847511678571E10 ; 0.0
76 ; 4.529716348815666E7 ; 1.211678340101177E9 ; 3.3269915778602123E9 ; 8.219635481607196E10 ; 0.0
77 ; 4.530644117903876E7 ; 1.2117534705773358E9 ; 3.372288741348369E9 ; 8.340803315617314E10 ; 0.0
78 ; 4.530199479954727E7 ; 1.2118290241295688E9 ; 3.4175951825274076E9 ; 8.461978662675047E10 ; 0.0
79 ; 4.529767688541807E7 ; 1.211904985579113E9 ; 3.462897177326955E9 ; 8.583161565088004E10 ; 0.0
80 ; 4.52997209850266E7 ; 1.2119813400764005E9 ; 3.508194854212373E9 ; 8.704352063645915E10 ; 0.0
81 ; 4.5287796816434726E7 ; 1.2120580730951037E9 ; 3.553494575197399E9 ; 8.825550197653555E10 ; 0.0
82 ; 4.528180821075231E7 ; 1.2121351704260523E9 ; 3.598782372013834E9 ; 8.946756004963066E10 ; 0.0
83 ; 4.5277383371884495E7 ; 1.2122126181710553E9 ; 3.6440641802245865E9 ; 9.067969522005672E10 ; 0.0
84 ; 4.5269895214653715E7 ; 1.212290402736649E9 ; 3.689341563596471E9 ; 9.189190783822777E10 ; 0.0
85 ; 4.526302316254293E7 ; 1.2123685108277948E9 ; 3.7346114588111243E9 ; 9.310419824096442E10 ; 0.0
86 ; 4.5251475767627776E7 ; 1.212446929441544E9 ; 3.779874481973667E9 ; 9.43165667517922E10 ; 0.0
87 ; 4.524442159191283E7 ; 1.2125256458606935E9 ; 3.825125957741295E9 ; 9.552901368123375E10 ; 0.0
88 ; 4.523764866937913E7 ; 1.2126046476474433E9 ; 3.8703703793332076E9 ; 9.674153932709444E10 ; 0.0
89 ; 4.52030767368233E7 ; 1.212683922637077E9 ; 3.915608028002587E9 ; 9.795414397474188E10 ; 0.0
90 ; 4.513833989314458E7 ; 1.2127634589316697E9 ; 3.96081110473941E9 ; 9.916682789737895E10 ; 0.0
91 ; 4.508484880863693E7 ; 1.2128432448938477E9 ; 4.0059494446325545E9 ; 1.0037959135631062E11 ; 0.0
92 ; 4.502140078893646E7 ; 1.2129232691405973E9 ; 4.0510342934411917E9 ; 1.0159243460120447E11 ; 0.0
93 ; 4.495570257220359E7 ; 1.2130035205371451E9 ; 4.0960556942301283E9 ; 1.0280535787034506E11 ; 0.0
94 ; 4.489007168476182E7 ; 1.2130839881909072E9 ; 4.141011396802332E9 ; 1.040183613908822E11 ; 0.0
95 ; 4.482437526148386E7 ; 1.213164661445522E9 ; 4.185901468487094E9 ; 1.052314453790731E11 ; 0.0
96 ; 4.4765650364038885E7 ; 1.2132455298749704E9 ; 4.2307258437485776E9 ; 1.0644461004051863E11 ; 0.0
97 ; 4.469909858082061E7 ; 1.2133265832777867E9 ; 4.2754914941126165E9 ; 1.076578555703936E11 ; 0.0
98 ; 4.463417481499199E7 ; 1.2134078116713705E9 ; 4.320190592693438E9 ; 1.0887118215367139E11 ; 0.0
99 ; 4.456827934139174E7 ; 1.213489205286398E9 ; 4.36482476750843E9 ; 1.1008458996534276E11 ; 0.0
100 ; 4.4502467280916005E7 ; 1.213570754561338E9 ; 4.409393046849821E9 ; 1.1129807917062915E11 ; 0.0
101 ; 4.4437669957506076E7 ; 1.2136524501370769E9 ; 4.453895514130737E9 ; 1.1251164992519049E11 ; 0.0
102 ; 4.437084611042138E7 ; 1.2137342828516521E9 ; 4.4983331840882435E9 ; 1.1372530237532756E11 ; 0.0
103 ; 4.4299632382559136E7 ; 1.213816243735098E9 ; 4.542704030198665E9 ; 1.1493903665817921E11 ; 0.0
104 ; 4.423802691935019E7 ; 1.213898324004402E9 ; 4.5870036625812235E9 ; 1.161528529019143E11 ; 0.0
105 ; 4.417008876797105E7 ; 1.213980515058576E9 ; 4.631241689500574E9 ; 1.173667512259187E11 ; 0.0
106 ; 4.4103554032827176E7 ; 1.2140628084738407E9 ; 4.675411778268545E9 ; 1.1858073174097728E11 ; 0.0
107 ; 4.402852262371464E7 ; 1.2141451959989226E9 ; 4.719515332301373E9 ; 1.1979479454945113E11 ; 0.0
108 ; 4.396690675102234E7 ; 1.2142276695504646E9 ; 4.763543854925087E9 ; 1.2100893974545004E11 ; 0.0
109 ; 4.389159178323713E7 ; 1.2143102212085497E9 ; 4.807510761676109E9 ; 1.222231674150005E11 ; 0.0
110 ; 4.382360642724814E7 ; 1.2143928432123356E9 ; 4.851402353459347E9 ; 1.2343747763620906E11 ; 0.0
111 ; 4.3752270393557854E7 ; 1.2144755279558008E9 ; 4.895225959886595E9 ; 1.246518704794214E11 ; 0.0
112 ; 4.368162765931165E7 ; 1.2145582679836E9 ; 4.938978230280152E9 ; 1.258663460073772E11 ; 0.0
113 ; 4.36137752561061E7 ; 1.2146410559870281E9 ; 4.982659857939464E9 ; 1.270809042753608E11 ; 0.0
114 ; 4.354423690813498E7 ; 1.2147238848000908E9 ; 5.02627363319557E9 ; 1.2829554533134782E11 ; 0.0
115 ; 4.347908205729889E7 ; 1.2148067473956795E9 ; 5.069817870103705E9 ; 1.2951026921614792E11 ; 0.0
116 ; 4.3398972602205776E7 ; 1.2148896368818514E9 ; 5.113296952161004E9 ; 1.307250759635436E11 ; 0.0
117 ; 4.3326573734045476E7 ; 1.2149725464982095E9 ; 5.15669592476321E9 ; 1.3193996560042545E11 ; 0.0
118 ; 4.326071917495632E7 ; 1.2150554696123838E9 ; 5.200022498497255E9 ; 1.3315493814692366E11 ; 0.0
119 ; 4.318003285615529E7 ; 1.2151383997166085E9 ; 5.243283217672212E9 ; 1.3436999361653604E11 ; 0.0
120 ; 4.3106731620510094E7 ; 1.215221330424398E9 ; 5.286463250528367E9 ; 1.3558513201625266E11 ; 0.0
121 ; 4.303698646556887E7 ; 1.2153042554673126E9 ; 5.329569982148877E9 ; 1.3680035334667705E11 ; 0.0
122 ; 4.296124297953516E7 ; 1.2153871686918194E9 ; 5.372606968614446E9 ; 1.3801565760214435E11 ; 0.0
123 ; 4.2889721269818716E7 ; 1.2154700640562418E9 ; 5.415568211593981E9 ; 1.3923104477083618E11 ; 0.0
124 ; 4.281479189235201E7 ; 1.2155529356277955E9 ; 5.458457932863799E9 ; 1.4044651483489243E11 ; 0.0
125 ; 4.273710399273291E7 ; 1.215635777579712E9 ; 5.501272724756151E9 ; 1.4166206777052023E11 ; 0.0
126 ; 4.266001394747672E7 ; 1.2157185841884425E9 ; 5.544009828748884E9 ; 1.4287770354809995E11 ; 0.0
127 ; 4.2585196598891474E7 ; 1.2158013498309484E9 ; 5.586669842696361E9 ; 1.440934221322884E11 ; 0.0
128 ; 4.251106130596753E7 ; 1.2158840689820635E9 ; 5.629255039295252E9 ; 1.4530922348211935E11 ; 0.0
129 ; 4.243599912337044E7 ; 1.215966736211941E9 ; 5.671766100601219E9 ; 1.465251075511014E11 ; 0.0
130 ; 4.235343058081191E7 ; 1.2160493461835704E9 ; 5.714202099724589E9 ; 1.4774107428731335E11 ; 0.0
131 ; 4.22634408031961E7 ; 1.2161318936503696E9 ; 5.756555530305401E9 ; 1.4895712363349692E11 ; 0.0
132 ; 4.2173104711898014E7 ; 1.2162143734538498E9 ; 5.798818971108597E9 ; 1.5017325552714728E11 ; 0.0
133 ; 4.208059662358202E7 ; 1.2162967805213454E9 ; 5.840992075820495E9 ; 1.5138946990060114E11 ; 0.0
134 ; 4.1990209949058436E7 ; 1.216379109863815E9 ; 5.883072672444077E9 ; 1.5260576668112247E11 ; 0.0
135 ; 4.1902287395110145E7 ; 1.2164613565737073E9 ; 5.925062882393135E9 ; 1.5382214579098627E11 ; 0.0
136 ; 4.180440247607063E7 ; 1.2165435158228889E9 ; 5.966965169788245E9 ; 1.5503860714755997E11 ; 0.0
137 ; 4.171571527652514E7 ; 1.2166255828606343E9 ; 6.008769572264316E9 ; 1.5625515066338284E11 ; 0.0
138 ; 4.163265782285625E7 ; 1.2167075530116792E9 ; 6.050485287540841E9 ; 1.5747177624624347E11 ; 0.0
139 ; 4.153168050704399E7 ; 1.2167894216743264E9 ; 6.092117945363697E9 ; 1.5868848379925516E11 ; 0.0
140 ; 4.143902648150536E7 ; 1.216871184318613E9 ; 6.133649625870741E9 ; 1.5990527322092947E11 ; 0.0
141 ; 4.133637579536623E7 ; 1.216952836484531E9 ; 6.175088652352246E9 ; 1.6112214440524808E11 ; 0.0
142 ; 4.12423833110466E7 ; 1.2170343737802997E9 ; 6.216425028147613E9 ; 1.623390972417326E11 ; 0.0
143 ; 4.115001414477181E7 ; 1.2171157918806934E9 ; 6.257667411458659E9 ; 1.635561316155129E11 ; 0.0
144 ; 4.1048289321891405E7 ; 1.2171970865254154E9 ; 6.298817425603431E9 ; 1.6477324740739362E11 ; 0.0
145 ; 4.098201078272423E7 ; 1.217278253517522E9 ; 6.339865714925323E9 ; 1.6599044449391904E11 ; 0.0
146 ; 4.090123441900017E7 ; 1.2173592887218966E9 ; 6.380847725708047E9 ; 1.6720772274743655E11 ; 0.0
147 ; 4.08291832154184E7 ; 1.217440188063765E9 ; 6.421748960127048E9 ; 1.6842508203615845E11 ; 0.0
148 ; 4.074529080062587E7 ; 1.217520947527258E9 ; 6.462578143342466E9 ; 1.696425222242222E11 ; 0.0
149 ; 4.0668110453726575E7 ; 1.2176015631540165E9 ; 6.503323434143092E9 ; 1.7086004317174945E11 ; 0.0
150 ; 4.059007070499548E7 ; 1.2176820310418377E9 ; 6.543991544596819E9 ; 1.7207764473490347E11 ; 0.0
151 ; 4.05014119557381E7 ; 1.2177623473433633E9 ; 6.584581615301814E9 ; 1.732953267659453E11 ; 0.0
152 ; 4.042631121155544E7 ; 1.217842508264805E9 ; 6.625083027257552E9 ; 1.7451308911328867E11 ; 0.0
153 ; 4.035218628639918E7 ; 1.2179225100647101E9 ; 6.665509338469108E9 ; 1.7573093162155347E11 ; 0.0
154 ; 4.027021104129162E7 ; 1.218002349052762E9 ; 6.7058615247555065E9 ; 1.7694885413161816E11 ; 0.0
155 ; 4.01964369550652E7 ; 1.2180820215886176E9 ; 6.746131735796798E9 ; 1.7816685648067093E11 ; 0.0
156 ; 4.011211851799345E7 ; 1.2181615240807798E9 ; 6.786328172751863E9 ; 1.7938493850225955E11 ; 0.0
157 ; 4.003466540643896E7 ; 1.2182408529855022E9 ; 6.8264402912698555E9 ; 1.8060310002634033E11 ; 0.0
158 ; 3.9954373378215335E7 ; 1.218320004805728E9 ; 6.866474956676294E9 ; 1.8182134087932584E11 ; 0.0
159 ; 3.987281728582722E7 ; 1.2183989760900578E9 ; 6.90642933005451E9 ; 1.8303966088413156E11 ; 0.0
160 ; 3.979276007865056E7 ; 1.2184777634317524E9 ; 6.946302147340338E9 ; 1.8425805986022162E11 ; 0.0
161 ; 3.971211628919259E7 ; 1.21855636346776E9 ; 6.986094907418988E9 ; 1.8547653762365338E11 ; 0.0
162 ; 3.963439143935107E7 ; 1.218634772877776E9 ; 7.02580702370818E9 ; 1.8669509398712115E11 ; 0.0
163 ; 3.95528956080363E7 ; 1.2187129883833296E9 ; 7.0654414151475315E9 ; 1.8791372875999893E11 ; 0.0
164 ; 3.9469984710453294E7 ; 1.2187910067468965E9 ; 7.104994310755568E9 ; 1.8913244174838226E11 ; 0.0
165 ; 3.938978835487443E7 ; 1.2188688247710378E9 ; 7.144464295466021E9 ; 1.9035123275512915E11 ; 0.0
166 ; 3.9309118059753954E7 ; 1.2189464392975667E9 ; 7.183854083820895E9 ; 1.9157010157990018E11 ; 0.0
167 ; 3.9221054585206546E7 ; 1.2190238472067351E9 ; 7.22316320188065E9 ; 1.9278904801919775E11 ; 0.0
168 ; 3.9151392953047514E7 ; 1.2191010454164498E9 ; 7.262384256465857E9 ; 1.9400807186640448E11 ; 0.0
169 ; 3.9066498342739955E7 ; 1.2191780308815055E9 ; 7.301535649418904E9 ; 1.9522717291182092E11 ; 0.0
170 ; 3.8986562606000125E7 ; 1.2192548005928462E9 ; 7.340602147761644E9 ; 1.9644635094270242E11 ; 0.0
171 ; 3.890761430182519E7 ; 1.2193313515768437E9 ; 7.379588710367644E9 ; 1.9766560574329526E11 ; 0.0
172 ; 3.882596157701132E7 ; 1.2194E9 ; 7.41849632466947E9 ; 1.988849370948721E11 ; 0.0
173 ; 3.875176642084893E7 ; 1.2194E9 ; 7.457322286246481E9 ; 2.001043370948721E11 ; 0.0
174 ; 3.866776641822524E7 ; 1.2194E9 ; 7.49607405266733E9 ; 2.013237370948721E11 ; 0.0
175 ; 3.860931314833472E7 ; 1.2194E9 ; 7.534741819085555E9 ; 2.025431370948721E11 ; 0.0
176 ; 3.852856828104318E7 ; 1.2194E9 ; 7.57335113223389E9 ; 2.037625370948721E11 ; 0.0
177 ; 3.8464272455819294E7 ; 1.2194E9 ; 7.611879700514933E9 ; 2.049819370948721E11 ; 0.0
178 ; 3.838907676950826E7 ; 1.2194E9 ; 7.650343972970752E9 ; 2.062013370948721E11 ; 0.0
179 ; 3.83169112428035E7 ; 1.2194E9 ; 7.68873304974026E9 ; 2.074207370948721E11 ; 0.0
180 ; 3.824507812670203E7 ; 1.2194E9 ; 7.727049960983064E9 ; 2.086401370948721E11 ; 0.0
181 ; 3.817833485842404E7 ; 1.2194E9 ; 7.765295039109766E9 ; 2.098595370948721E11 ; 0.0
182 ; 3.81145458760324E7 ; 1.2194E9 ; 7.80347337396819E9 ; 2.110789370948721E11 ; 0.0
183 ; 3.8040293174270496E7 ; 1.2194E9 ; 7.841587919844223E9 ; 2.122983370948721E11 ; 0.0
184 ; 3.7967258289229825E7 ; 1.2194E9 ; 7.879628213018494E9 ; 2.135177370948721E11 ; 0.0
185 ; 3.789968053939274E7 ; 1.2194E9 ; 7.917595471307723E9 ; 2.147371370948721E11 ; 0.0
186 ; 3.7828118906449944E7 ; 1.2194E9 ; 7.9554951518471155E9 ; 2.159565370948721E11 ; 0.0
187 ; 3.776088084588308E7 ; 1.2194E9 ; 7.993323270753566E9 ; 2.171759370948721E11 ; 0.0
188 ; 3.76876085521624E7 ; 1.2194E9 ; 8.031084151599449E9 ; 2.183953370948721E11 ; 0.0
189 ; 3.7618258559043676E7 ; 1.2194E9 ; 8.068771760151611E9 ; 2.196147370948721E11 ; 0.0
190 ; 3.754618076679972E7 ; 1.2194E9 ; 8.106390018710655E9 ; 2.208341370948721E11 ; 0.0
191 ; 3.747790376764803E7 ; 1.2194E9 ; 8.143936199477455E9 ; 2.220535370948721E11 ; 0.0
192 ; 3.740644825654207E7 ; 1.2194E9 ; 8.181414103245103E9 ; 2.232729370948721E11 ; 0.0
193 ; 3.733169517487675E7 ; 1.2194E9 ; 8.218820551501645E9 ; 2.244923370948721E11 ; 0.0
194 ; 3.726987491237286E7 ; 1.2194E9 ; 8.256152246676522E9 ; 2.257117370948721E11 ; 0.0
195 ; 3.719420560069645E7 ; 1.2194E9 ; 8.293422121588895E9 ; 2.269311370948721E11 ; 0.0
196 ; 3.71290654704688E7 ; 1.2194E9 ; 8.330616327189591E9 ; 2.281505370948721E11 ; 0.0
197 ; 3.706185468443986E7 ; 1.2194E9 ; 8.36774539266006E9 ; 2.293699370948721E11 ; 0.0
198 ; 3.69850991195688E7 ; 1.1968696133522906E9 ; 8.4048072473445E9 ; 2.305893370948721E11 ; 0.0
199 ; 3.691245371921153E7 ; 1.120259709538434E9 ; 8.441792346464068E9 ; 2.317862067082244E11 ; 0.0
200 ; 3.6854900676742084E7 ; 1.0739242247649868E9 ; 8.47870480018328E9 ; 2.3290646641776282E11 ; 0.0
