CSV File for the Network on Day 221
1 - Minute m 
2 - Power Consumed at minute m 
3 - Power Produced at minute m 
4 - Energy Consumed since the beginning of the day 
5 - Energy Produced since the beginning of the day 
6 - Energy Lost since the beginning of the day 
 
0 ; 493415.87589792063 ; 2.105369434820253E8 ; 0.0 ; 0.0 ; 0.0
1 ; 497390.25440226094 ; 2.108397821579385E8 ; 493415.87589792063 ; 2.105369434820253E8 ; 356.14
2 ; 502416.1085556607 ; 2.1176037417641142E8 ; 990806.1303001816 ; 4.213767256399638E8 ; 712.28
3 ; 507313.17009154253 ; 2.132987577727869E8 ; 1493222.2388558423 ; 6.331370998163753E8 ; 1068.42
4 ; 511218.27404987474 ; 2.1545497114434645E8 ; 2000535.408947385 ; 8.464358575891621E8 ; 1424.56
5 ; 518692.3508880343 ; 2.1822905139032963E8 ; 2511753.68299726 ; 1.0618908287335086E9 ; 1780.6999999999998
6 ; 523334.21830673754 ; 2.2162103327160266E8 ; 3030446.033885294 ; 1.2801198801238382E9 ; 2136.8399999999997
7 ; 525932.3466114944 ; 2.2563094785240647E8 ; 3553780.2521920316 ; 1.5017409133954408E9 ; 2492.9799999999996
8 ; 529336.0378173993 ; 2.3025882112059912E8 ; 4079712.598803526 ; 1.7273718612478473E9 ; 2849.1199999999994
9 ; 535192.5472079167 ; 2.355046727097452E8 ; 4609048.636620925 ; 1.9576306823684464E9 ; 3205.2599999999993
10 ; 538423.4981602186 ; 2.4136851485739824E8 ; 5144241.183828842 ; 2.1931353550781918E9 ; 3561.399999999999
11 ; 540755.9202790249 ; 2.4785035172209093E8 ; 5682664.681989061 ; 2.43450386993559E9 ; 3917.539999999999
12 ; 545778.5653467339 ; 2.5495017914529052E8 ; 6223420.602268086 ; 2.6823542216576805E9 ; 4273.679999999999
13 ; 550782.0115259861 ; 2.626679848894435E8 ; 6769199.1676148195 ; 2.937304400802971E9 ; 4629.82
14 ; 552666.646811053 ; 2.7100374932098544E8 ; 7319981.179140805 ; 3.1999723856924143E9 ; 4985.96
15 ; 556834.6504754372 ; 2.79957446452058E8 ; 7872647.825951858 ; 3.4709761350133996E9 ; 5342.1
16 ; 560860.0227981907 ; 2.8952904521842057E8 ; 8429482.476427296 ; 3.7509335814654574E9 ; 5698.240000000001
17 ; 564972.0091005482 ; 2.997185108592067E8 ; 8990342.499225486 ; 4.040462626683878E9 ; 6054.380000000001
18 ; 570503.5368167845 ; 3.105258062751769E8 ; 9555314.508326035 ; 4.340181137543085E9 ; 6410.520000000001
19 ; 574419.8778851826 ; 3.2195089326904964E8 ; 1.012581804514282E7 ; 4.650706943818262E9 ; 6766.660000000002
20 ; 575323.2553378936 ; 3.3399373360548204E8 ; 1.0700237923028003E7 ; 4.972657837087312E9 ; 7122.800000000002
21 ; 579523.3896439923 ; 3.466542898614062E8 ; 1.1275561178365897E7 ; 5.306651570692794E9 ; 7478.940000000002
22 ; 584986.0875113016 ; 3.599325260645326E8 ; 1.185508456800989E7 ; 5.6533058605542E9 ; 7835.080000000003
23 ; 588435.3253847009 ; 3.73828408136714E8 ; 1.2440070655521192E7 ; 6.013238386618732E9 ; 8191.220000000003
24 ; 592720.3431490998 ; 3.8834190416967124E8 ; 1.3028505980905892E7 ; 6.387066794755446E9 ; 8547.360000000002
25 ; 596754.8623669065 ; 4.0084906636118555E8 ; 1.3621226324054992E7 ; 6.7754086989251175E9 ; 8903.500000000002
26 ; 602334.7960144513 ; 4.0085696312416935E8 ; 1.42179811864219E7 ; 7.176257765286303E9 ; 9259.640000000001
27 ; 607243.0043269963 ; 4.0086510809542763E8 ; 1.482031598243635E7 ; 7.577114728410472E9 ; 9615.78
28 ; 607593.4872490062 ; 4.0087347853560853E8 ; 1.5427558986763345E7 ; 7.977979836505899E9 ; 9971.92
29 ; 612175.3776125349 ; 4.008820537885873E8 ; 1.603515247401235E7 ; 8.378853315041508E9 ; 10328.06
30 ; 615643.5351240328 ; 4.008908151354359E8 ; 1.6647327851624886E7 ; 8.779735368830095E9 ; 10684.199999999999
31 ; 617857.1423222279 ; 4.0089974564021647E8 ; 1.7262971386748917E7 ; 9.18062618396553E9 ; 11040.339999999998
32 ; 622448.04717781 ; 4.009088299951917E8 ; 1.7880828529071145E7 ; 9.581525929605747E9 ; 11396.479999999998
33 ; 626586.6387971508 ; 4.0091805437057585E8 ; 1.8503276576248955E7 ; 9.982434759600939E9 ; 11752.619999999997
34 ; 630010.1567509362 ; 4.009274062720782E8 ; 1.9129863215046104E7 ; 1.0383352813971514E10 ; 12108.759999999997
35 ; 633114.6539910206 ; 4.0093687440811145E8 ; 1.975987337179704E7 ; 1.0784280220243591E10 ; 12464.899999999996
36 ; 637091.7665178535 ; 4.009464485675609E8 ; 2.039298802578806E7 ; 1.1185217094651703E10 ; 12821.039999999995
37 ; 638287.9227229472 ; 4.009561195083346E8 ; 2.1030079792305917E7 ; 1.1586163543219263E10 ; 13177.179999999995
38 ; 643088.1566224241 ; 4.0096587885646445E8 ; 2.1668367715028863E7 ; 1.1987119662727598E10 ; 13533.319999999994
39 ; 646512.43728743 ; 4.009757190152527E8 ; 2.2311455871651288E7 ; 1.2388085541584063E10 ; 13889.459999999994
40 ; 649917.1348207186 ; 4.0098563308379066E8 ; 2.295796830893872E7 ; 1.2789061260599316E10 ; 14245.599999999993
41 ; 651841.9882553343 ; 4.0099561478410083E8 ; 2.3607885443759438E7 ; 1.3190046893683105E10 ; 14601.739999999993
42 ; 655384.2515391178 ; 4.010056583961282E8 ; 2.425972743201477E7 ; 1.3591042508467207E10 ; 14957.879999999992
43 ; 657062.3294446453 ; 4.010157586998199E8 ; 2.491511168355389E7 ; 1.3992048166863335E10 ; 15314.019999999991
44 ; 659922.4466179269 ; 4.010259109235681E8 ; 2.5572174012998536E7 ; 1.4393063925563154E10 ; 15670.15999999999
45 ; 663056.7162129995 ; 4.0103611069833887E8 ; 2.6232096459616464E7 ; 1.4794089836486723E10 ; 16026.29999999999
46 ; 666180.2624711356 ; 4.0104635401686627E8 ; 2.6895153175829463E7 ; 1.5195125947185062E10 ; 16382.43999999999
47 ; 666379.5484020333 ; 4.0105663719734573E8 ; 2.75613334383006E7 ; 1.559617230120193E10 ; 16738.57999999999
48 ; 672647.1236687537 ; 4.010669568511188E8 ; 2.8227712986702632E7 ; 1.5997228938399275E10 ; 17094.71999999999
49 ; 674548.1475296619 ; 4.010773098538934E8 ; 2.8900360110371385E7 ; 1.6398295895250393E10 ; 17450.85999999999
50 ; 678089.5483383548 ; 4.0108769332009417E8 ; 2.9574908257901046E7 ; 1.6799373205104286E10 ; 17806.99999999999
51 ; 677518.6260496225 ; 4.0109810457998264E8 ; 3.02529978062394E7 ; 1.720046089842438E10 ; 18163.13999999999
52 ; 679664.313839458 ; 4.0110854115922856E8 ; 3.0930516432289023E7 ; 1.7601559003004364E10 ; 18519.279999999988
53 ; 681722.3899871935 ; 4.011190007606509E8 ; 3.161018074612848E7 ; 1.8002667544163593E10 ; 18875.419999999987
54 ; 683257.2111147332 ; 4.011294812478802E8 ; 3.2291903136115674E7 ; 1.8403786544924244E10 ; 19231.559999999987
55 ; 687325.2641878702 ; 4.011399806307227E8 ; 3.297516034723041E7 ; 1.8804916026172123E10 ; 19587.699999999986
56 ; 686874.7002991228 ; 4.011504970520339E8 ; 3.366248561141828E7 ; 1.9206056006802845E10 ; 19943.839999999986
57 ; 690004.7385726077 ; 4.0116102877593136E8 ; 3.43493603117174E7 ; 1.9607206503854877E10 ; 20299.979999999985
58 ; 692561.758260171 ; 4.01171574177197E8 ; 3.503936505029E7 ; 2.000836753263081E10 ; 20656.119999999984
59 ; 694254.5792875813 ; 4.011821317317364E8 ; 3.573192680855017E7 ; 2.0409539106808006E10 ; 21012.259999999984
60 ; 696359.8648928474 ; 4.011927000079808E8 ; 3.642618138783775E7 ; 2.081072123853974E10 ; 21368.399999999983
61 ; 699447.805271974 ; 4.0120327765912545E8 ; 3.71225412527306E7 ; 2.121191393854772E10 ; 21724.539999999983
62 ; 702811.6447991128 ; 4.0121386341611814E8 ; 3.7821989058002576E7 ; 2.161311721620685E10 ; 22080.679999999982
63 ; 705009.5326846904 ; 4.012244560813143E8 ; 3.852480070280169E7 ; 2.2014331079622967E10 ; 22436.81999999998
64 ; 706018.5983276082 ; 4.0123505452273005E8 ; 3.922981023548638E7 ; 2.241555553570428E10 ; 22792.95999999998
65 ; 709206.0488570066 ; 4.012456576688296E8 ; 3.993582883381399E7 ; 2.2816790590227013E10 ; 23149.09999999998
66 ; 711067.0922032001 ; 4.012562645037918E8 ; 4.064503488267099E7 ; 2.3218036247895844E10 ; 23505.23999999998
67 ; 713431.7520725083 ; 4.0126687406320655E8 ; 4.135610197487419E7 ; 2.3619292512399635E10 ; 23861.37999999998
68 ; 716611.7328831615 ; 4.012774854301578E8 ; 4.20695337269467E7 ; 2.402055938646284E10 ; 24217.51999999998
69 ; 717680.695412367 ; 4.0128809773165303E8 ; 4.278614545982986E7 ; 2.4421836871892998E10 ; 24573.659999999978
70 ; 718274.8813962775 ; 4.012987101353669E8 ; 4.350382615524223E7 ; 2.482312496962465E10 ; 24929.799999999977
71 ; 721059.7830246505 ; 4.0130932184666574E8 ; 4.4222101036638506E7 ; 2.5224423679760017E10 ; 25285.939999999977
72 ; 724046.3921853496 ; 4.013199321058872E8 ; 4.494316081966316E7 ; 2.562573300160668E10 ; 25642.079999999976
73 ; 725833.1987543257 ; 4.013305401858499E8 ; 4.566720721184851E7 ; 2.602705293371257E10 ; 25998.219999999976
74 ; 725414.9505465202 ; 4.0134114538957155E8 ; 4.639304041060284E7 ; 2.642838347389842E10 ; 26354.359999999975
75 ; 727417.4410227723 ; 4.013517470481746E8 ; 4.7118455361149356E7 ; 2.682972461928799E10 ; 26710.499999999975
76 ; 728014.5529890638 ; 4.013623445189643E8 ; 4.7845872802172124E7 ; 2.7231076366336166E10 ; 27066.639999999974
77 ; 730619.2070456545 ; 4.01372937183661E8 ; 4.857388735516119E7 ; 2.763243871085513E10 ; 27422.779999999973
78 ; 729414.5731504412 ; 4.0138352444677365E8 ; 4.930450656220684E7 ; 2.803381164803879E10 ; 27778.919999999973
79 ; 732866.857421858 ; 4.01394105734102E8 ; 5.003392113535728E7 ; 2.8435195172485565E10 ; 28135.059999999972
80 ; 735293.4559219233 ; 4.0140468049135536E8 ; 5.076678799277914E7 ; 2.8836589278219666E10 ; 28491.19999999997
81 ; 737122.7288419651 ; 4.0141524818287814E8 ; 5.150208144870107E7 ; 2.923799395871102E10 ; 28847.33999999997
82 ; 738401.2678226634 ; 4.014258082904726E8 ; 5.223920417754304E7 ; 2.9639409206893898E10 ; 29203.47999999997
83 ; 740123.631738014 ; 4.014363603123103E8 ; 5.29776054453657E7 ; 3.0040835015184372E10 ; 29559.61999999997
84 ; 743333.995387626 ; 4.014469037619249E8 ; 5.371772907710371E7 ; 3.044227137549668E10 ; 29915.75999999997
85 ; 745618.2959046605 ; 4.014574381672798E8 ; 5.446106307249134E7 ; 3.0843718279258606E10 ; 30271.89999999997
86 ; 745733.015487469 ; 4.01467963069903E8 ; 5.5206681368396E7 ; 3.1245175717425884E10 ; 30628.039999999968
87 ; 748527.9418868136 ; 4.0147847802408564E8 ; 5.595241438388347E7 ; 3.164664368049579E10 ; 30984.179999999968
88 ; 748992.5497259411 ; 4.014889825961366E8 ; 5.670094232577028E7 ; 3.2048122158519875E10 ; 31340.319999999967
89 ; 750008.5710510564 ; 4.014994763636912E8 ; 5.744993487549622E7 ; 3.2449611141116013E10 ; 31696.459999999966
90 ; 751377.6699985259 ; 4.0150995891506743E8 ; 5.819994344654728E7 ; 3.2851110617479702E10 ; 32052.599999999966
91 ; 754520.5848814499 ; 4.01520429848667E8 ; 5.8951321116545804E7 ; 3.3252620576394768E10 ; 32408.739999999965
92 ; 754479.4950659174 ; 4.0153088877241826E8 ; 5.970584170142725E7 ; 3.3654141006243435E10 ; 32764.879999999965
93 ; 756570.7967692206 ; 4.015413353032555E8 ; 6.046032119649317E7 ; 3.4055671895015854E10 ; 33121.01999999997
94 ; 756442.5004209174 ; 4.0155176906663525E8 ; 6.1216891993262395E7 ; 3.445721323031911E10 ; 33477.15999999997
95 ; 757554.9253178901 ; 4.0156218969608307E8 ; 6.1973334493683316E7 ; 3.485876499938574E10 ; 33833.29999999997
96 ; 760157.7513708331 ; 4.015725968327713E8 ; 6.273088941900121E7 ; 3.5260327189081825E10 ; 34189.439999999966
97 ; 760079.1610299218 ; 4.015829901251242E8 ; 6.349104717037204E7 ; 3.56618997859146E10 ; 34545.579999999965
98 ; 761343.8493824237 ; 4.015933692284486E8 ; 6.425112633140196E7 ; 3.606348277603972E10 ; 34901.719999999965
99 ; 764661.6082356735 ; 4.016037338045883E8 ; 6.501247018078438E7 ; 3.6465076145268166E10 ; 35257.859999999964
100 ; 765122.5487438577 ; 4.016140835216004E8 ; 6.5777131789020054E7 ; 3.6866679879072754E10 ; 35613.99999999996
101 ; 765987.7625446381 ; 4.016244180534522E8 ; 6.654225433776391E7 ; 3.726829396259435E10 ; 35970.13999999996
102 ; 767581.5948610941 ; 4.0163473707973677E8 ; 6.730824210030855E7 ; 3.7669918380647804E10 ; 36326.27999999996
103 ; 768026.2108251372 ; 4.0164504028540665E8 ; 6.807582369516964E7 ; 3.807155311772754E10 ; 36682.41999999996
104 ; 769466.9221645313 ; 4.016553273605232E8 ; 6.884384990599477E7 ; 3.847319815801295E10 ; 37038.55999999996
105 ; 771859.6739595081 ; 4.016655980000217E8 ; 6.96133168281593E7 ; 3.8874853485373474E10 ; 37394.69999999996
106 ; 771197.7192624705 ; 4.0167585190349066E8 ; 7.038517650211881E7 ; 3.92765190833735E10 ; 37750.83999999996
107 ; 774839.2155157755 ; 4.0168608877496386E8 ; 7.115637422138128E7 ; 3.9678194935276985E10 ; 38106.97999999996
108 ; 773280.3601345775 ; 4.016963083227253E8 ; 7.193121343689705E7 ; 4.007988102405195E10 ; 38463.11999999996
109 ; 773821.1795273733 ; 4.0170651025912535E8 ; 7.270449379703163E7 ; 4.048157733237467E10 ; 38819.25999999996
110 ; 772905.08643594 ; 4.0171669430040747E8 ; 7.3478314976559E7 ; 4.08832838426338E10 ; 39175.39999999996
111 ; 775229.9670826319 ; 4.0172686016654557E8 ; 7.425122006299494E7 ; 4.1285000536934204E10 ; 39531.53999999996
112 ; 779276.238573973 ; 4.0173700758109E8 ; 7.502645003007758E7 ; 4.1686727397100746E10 ; 39887.67999999996
113 ; 778052.5622509024 ; 4.0174713627102274E8 ; 7.580572626865155E7 ; 4.208846440468184E10 ; 40243.819999999956
114 ; 778199.2417267611 ; 4.0175724596662086E8 ; 7.658377883090244E7 ; 4.249021154095286E10 ; 40599.959999999955
115 ; 779406.2755741768 ; 4.017673364013274E8 ; 7.73619780726292E7 ; 4.289196878691948E10 ; 40956.099999999955
116 ; 781695.0273332894 ; 4.017774073116296E8 ; 7.814138434820338E7 ; 4.329373612332081E10 ; 41312.239999999954
117 ; 779156.7581223107 ; 4.017874584369438E8 ; 7.892307937553667E7 ; 4.369551353063244E10 ; 41668.379999999954
118 ; 783157.353468834 ; 4.0179748951950693E8 ; 7.970223613365898E7 ; 4.409730098906938E10 ; 42024.51999999995
119 ; 783503.8730661946 ; 4.018075003042735E8 ; 8.048539348712781E7 ; 4.449909847858889E10 ; 42380.65999999995
120 ; 783587.5081707214 ; 4.018174905388185E8 ; 8.126889736019401E7 ; 4.4900905978893166E10 ; 42736.79999999995
121 ; 785308.513497328 ; 4.018274599732455E8 ; 8.205248486836474E7 ; 4.5302723469431984E10 ; 43092.93999999995
122 ; 785678.6707083131 ; 4.018374083600998E8 ; 8.283779338186206E7 ; 4.570455092940523E10 ; 43449.07999999995
123 ; 787867.4588995929 ; 4.018473354542856E8 ; 8.362347205257037E7 ; 4.610638833776533E10 ; 43805.21999999995
124 ; 786659.402435344 ; 4.0185724101298845E8 ; 8.441133951146996E7 ; 4.650823567321961E10 ; 44161.35999999995
125 ; 786043.7172549807 ; 4.0186712479560125E8 ; 8.519799891390531E7 ; 4.69100929142326E10 ; 44517.49999999995
126 ; 784407.3203518707 ; 4.0187698656365377E8 ; 8.598404263116029E7 ; 4.73119600390282E10 ; 44873.63999999995
127 ; 784020.2298689756 ; 4.0188682608074695E8 ; 8.676844995151216E7 ; 4.771383702559185E10 ; 45229.77999999995
128 ; 783087.8103721193 ; 4.0189664311248946E8 ; 8.755247018138114E7 ; 4.81157238516726E10 ; 45585.91999999995
129 ; 784166.0193610039 ; 4.019064374264381E8 ; 8.833555799175325E7 ; 4.851762049478509E10 ; 45942.05999999995
130 ; 783716.1159921193 ; 4.019162087920413E8 ; 8.911972401111425E7 ; 4.8919526932211525E10 ; 46298.199999999946
131 ; 782354.0058083492 ; 4.019259569805849E8 ; 8.990344012710637E7 ; 4.932144314100356E10 ; 46654.339999999946
132 ; 784662.7588109847 ; 4.0193568176514184E8 ; 9.068579413291472E7 ; 4.9723369097984146E10 ; 47010.479999999945
133 ; 781686.5909890591 ; 4.019453829205229E8 ; 9.14704568917257E7 ; 5.012530477974929E10 ; 47366.619999999944
134 ; 783935.6613326699 ; 4.0195506022323126E8 ; 9.225214348271476E7 ; 5.0527250162669815E10 ; 47722.759999999944
135 ; 784335.746653965 ; 4.0196471345141834E8 ; 9.303607914404742E7 ; 5.092920522289304E10 ; 48078.89999999994
136 ; 785547.5566263704 ; 4.0197434238484263E8 ; 9.382041489070138E7 ; 5.133116993634446E10 ; 48435.03999999994
137 ; 785059.1525212289 ; 4.0198394680482984E8 ; 9.460596244732775E7 ; 5.17331442787293E10 ; 48791.17999999994
138 ; 785243.8937982579 ; 4.019935264942356E8 ; 9.539102159984897E7 ; 5.2135128225534134E10 ; 49147.31999999994
139 ; 785744.704535136 ; 4.020030812374097E8 ; 9.617626549364723E7 ; 5.2537121752028366E10 ; 49503.45999999994
140 ; 785748.0023907201 ; 4.020126108201622E8 ; 9.696201019818237E7 ; 5.293912483326578E10 ; 49859.59999999994
141 ; 785116.9966544764 ; 4.0202211502973086E8 ; 9.77477582005731E7 ; 5.334113744408594E10 ; 50215.73999999994
142 ; 784798.990217037 ; 4.02031593654751E8 ; 9.853287519722758E7 ; 5.374315955911567E10 ; 50571.87999999994
143 ; 783877.2523006524 ; 4.020410464852257E8 ; 9.931767418744461E7 ; 5.4145191152770424E10 ; 50928.01999999994
144 ; 785713.5762252669 ; 4.020504733124984E8 ; 1.0010155143974526E8 ; 5.4547232199255646E10 ; 51284.15999999994
145 ; 785454.7008976326 ; 4.0205987392922616E8 ; 1.0088726501597053E8 ; 5.4949282672568146E10 ; 51640.29999999994
146 ; 788079.6725009455 ; 4.0206924812935483E8 ; 1.0167271971686816E8 ; 5.5351342546497375E10 ; 51996.43999999994
147 ; 788782.9753466729 ; 4.0207859570809466E8 ; 1.024607993893691E8 ; 5.575341179462673E10 ; 52352.579999999936
148 ; 791910.3362893462 ; 4.0208791646189797E8 ; 1.0324958236471577E8 ; 5.615549039033482E10 ; 52708.719999999936
149 ; 792424.8521680711 ; 4.020972101884371E8 ; 1.0404149270100512E8 ; 5.655757830679672E10 ; 53064.859999999935
150 ; 796177.555851267 ; 4.021064766865839E8 ; 1.0483391755317318E8 ; 5.695967551698516E10 ; 53420.999999999935
151 ; 797944.796423133 ; 4.0211571575638974E8 ; 1.0563009510902445E8 ; 5.7361781993671745E10 ; 53777.139999999934
152 ; 797581.0836874065 ; 4.0212492719906735E8 ; 1.0642803990544759E8 ; 5.776389770942814E10 ; 54133.27999999993
153 ; 800967.8850924267 ; 4.021341108169725E8 ; 1.07225620989135E8 ; 5.8166022636627205E10 ; 54489.41999999993
154 ; 800845.6668864246 ; 4.0214326641358733E8 ; 1.0802658887422742E8 ; 5.8568156747444176E10 ; 54845.55999999993
155 ; 803502.9657707755 ; 4.021523937935039E8 ; 1.0882743454111384E8 ; 5.8970300013857765E10 ; 55201.69999999993
156 ; 806444.1793060672 ; 4.0216149276240885E8 ; 1.0963093750688462E8 ; 5.937245240765127E10 ; 55557.83999999993
157 ; 809197.1204259213 ; 4.0217056312706906E8 ; 1.1043738168619068E8 ; 5.977461390041367E10 ; 55913.97999999993
158 ; 810723.7208741863 ; 4.0217960469531727E8 ; 1.112465788066166E8 ; 6.017678446354074E10 ; 56270.11999999993
159 ; 812059.8539659156 ; 4.021886172760391E8 ; 1.120573025274908E8 ; 6.057896406823606E10 ; 56626.25999999993
160 ; 814653.8484073996 ; 4.0219760067916024E8 ; 1.128693623814567E8 ; 6.09811526855121E10 ; 56982.39999999993
161 ; 814471.0040401422 ; 4.022065547156345E8 ; 1.136840162298641E8 ; 6.138335028619126E10 ; 57338.53999999993
162 ; 816244.9460850512 ; 4.022154791974324E8 ; 1.1449848723390424E8 ; 6.17855568409069E10 ; 57694.67999999993
163 ; 817354.309159837 ; 4.0222437393753004E8 ; 1.153147321799893E8 ; 6.218777232010433E10 ; 58050.81999999993
164 ; 819201.0242345175 ; 4.0223323874989915E8 ; 1.1613208648914912E8 ; 6.258999669404186E10 ; 58406.95999999993
165 ; 819940.5305356554 ; 4.0224207344949687E8 ; 1.1695128751338364E8 ; 6.299222993279176E10 ; 58763.099999999926
166 ; 822629.2944209677 ; 4.0225087785225654E8 ; 1.177712280439193E8 ; 6.339447200624126E10 ; 59119.239999999925
167 ; 823436.155145936 ; 4.022596517750787E8 ; 1.1859385733834027E8 ; 6.379672288409351E10 ; 59475.379999999925
168 ; 825312.3820298642 ; 4.0226839503582275E8 ; 1.1941729349348621E8 ; 6.419898253586859E10 ; 59831.519999999924
169 ; 827138.665716324 ; 4.0227710745329875E8 ; 1.2024260587551607E8 ; 6.460125093090441E10 ; 60187.65999999992
170 ; 828911.8386336198 ; 4.0228578884726E8 ; 1.2106974454123239E8 ; 6.500352803835771E10 ; 60543.79999999992
171 ; 831368.5149053797 ; 4.0229443903839546E8 ; 1.2189865637986602E8 ; 6.540581382720497E10 ; 60899.93999999992
172 ; 831037.8774517191 ; 4.023030578483232E8 ; 1.227300248947714E8 ; 6.580810826624337E10 ; 61256.07999999992
173 ; 833277.3672296827 ; 4.023116450995836E8 ; 1.2356106277222311E8 ; 6.621041132409169E10 ; 61612.21999999992
174 ; 836632.1986289584 ; 4.0232020061563325E8 ; 1.243943401394528E8 ; 6.661272296919128E10 ; 61968.35999999992
175 ; 838669.1006225917 ; 4.0232872422083914E8 ; 1.2523097233808176E8 ; 6.701504316980691E10 ; 62324.49999999992
176 ; 840376.0122755002 ; 4.02337215740473E8 ; 1.2606964143870436E8 ; 6.741737189402775E10 ; 62680.63999999992
177 ; 841376.7930397688 ; 4.0234567500070596E8 ; 1.2691001745097986E8 ; 6.781970910976822E10 ; 63036.77999999992
