CSV File for the Network on Day 75
1 - Minute m 
2 - Power Consumed at minute m 
3 - Power Produced at minute m 
4 - Energy Consumed since the beginning of the day 
5 - Energy Produced since the beginning of the day 
6 - Energy Lost since the beginning of the day 
 
0 ; 3.851404793512071E7 ; 6.346687209870037E8 ; 0.0 ; 0.0 ; 0.0
1 ; 3.8558741758967385E7 ; 6.355792578899894E8 ; 3.851404793512071E7 ; 6.346687209870037E8 ; 0.0
2 ; 3.8595203819686525E7 ; 6.383432087004033E8 ; 7.70727896940881E7 ; 1.2702479788769932E9 ; 0.0
3 ; 3.8645056676758945E7 ; 6.429605921842978E8 ; 1.1566799351377463E8 ; 1.9085911875773964E9 ; 0.0
4 ; 3.869986319493765E7 ; 6.494314251963558E8 ; 1.5431305019053358E8 ; 2.551551779761694E9 ; 0.0
5 ; 3.8771819242995515E7 ; 6.5775572257411E8 ; 1.9301291338547122E8 ; 3.20098320495805E9 ; 0.0
6 ; 3.8861316314697094E7 ; 6.679334970427815E8 ; 2.3178473262846673E8 ; 3.85873892753216E9 ; 0.0
7 ; 3.899112104940687E7 ; 6.799647591321411E8 ; 2.706460489431638E8 ; 4.526672424574942E9 ; 0.0
8 ; 3.9167679463577315E7 ; 6.938495171066389E8 ; 3.096371699925707E8 ; 5.206637183707083E9 ; 0.0
9 ; 3.945903014492341E7 ; 7.095877769098856E8 ; 3.48804849456148E8 ; 5.900486700813722E9 ; 0.0
10 ; 3.9896403465801194E7 ; 7.271795421243513E8 ; 3.882638796010714E8 ; 6.610074477723607E9 ; 0.0
11 ; 4.058175931800654E7 ; 7.466248139469229E8 ; 4.281602830668726E8 ; 7.337254019847959E9 ; 0.0
12 ; 4.168840199175376E7 ; 7.67923591180713E8 ; 4.687420423848791E8 ; 8.083878833794882E9 ; 0.0
13 ; 4.275131846430433E7 ; 7.91075870243252E8 ; 5.1043044437663287E8 ; 8.851802424975595E9 ; 0.0
14 ; 4.2879025541909814E7 ; 8.160816451909298E8 ; 5.531817628409371E8 ; 9.642878295218847E9 ; 0.0
15 ; 4.292698437581832E7 ; 8.429409077592951E8 ; 5.96060788382847E8 ; 1.0458959940409777E10 ; 0.0
16 ; 4.2974669925054215E7 ; 8.716536474185781E8 ; 6.389877727586653E8 ; 1.1301900848169071E10 ; 0.0
17 ; 4.302287524502309E7 ; 9.022198514435571E8 ; 6.819624426837195E8 ; 1.217355449558765E10 ; 0.0
18 ; 4.306612775113112E7 ; 9.346395049966997E8 ; 7.249853179287426E8 ; 1.3075774347031208E10 ; 0.0
19 ; 4.3121258142057136E7 ; 9.689125912233227E8 ; 7.680514456798737E8 ; 1.4010413852027908E10 ; 0.0
20 ; 4.317474366255388E7 ; 1.0050390913573738E9 ; 8.111727038219309E8 ; 1.497932644325123E10 ; 0.0
21 ; 4.322369810280262E7 ; 1.0430189848363329E9 ; 8.543474474844848E8 ; 1.5984365534608604E10 ; 0.0
22 ; 4.327459292954112E7 ; 1.0828522494236553E9 ; 8.975711455872874E8 ; 1.7027384519444937E10 ; 0.0
23 ; 4.3326679681064166E7 ; 1.1245388613371522E9 ; 9.408457385168285E8 ; 1.811023676886859E10 ; 0.0
24 ; 4.33734943132273E7 ; 1.1680787953816943E9 ; 9.841724181978927E8 ; 1.923477563020574E10 ; 0.0
25 ; 4.342623886229646E7 ; 1.2056002704737725E9 ; 1.02754591251112E9 ; 2.0402854425587437E10 ; 0.0
26 ; 4.346955675907578E7 ; 1.2056245459995675E9 ; 1.0709721513734164E9 ; 2.160845469606121E10 ; 0.0
27 ; 4.352122494977519E7 ; 1.2056502091008854E9 ; 1.1144417081324923E9 ; 2.281407924206078E10 ; 0.0
28 ; 4.357370685573116E7 ; 1.205677230290801E9 ; 1.1579629330822675E9 ; 2.4019729451161667E10 ; 0.0
29 ; 4.361779532964496E7 ; 1.2057055793454523E9 ; 1.2015366399379988E9 ; 2.522540668145247E10 ; 0.0
30 ; 4.366991747531014E7 ; 1.2057352254326108E9 ; 1.2451544352676437E9 ; 2.643111226079792E10 ; 0.0
31 ; 4.371087862670198E7 ; 1.2057661372355886E9 ; 1.2888243527429538E9 ; 2.763684748623053E10 ; 0.0
32 ; 4.375262376027414E7 ; 1.2057982830717154E9 ; 1.3325352313696558E9 ; 2.8842613623466118E10 ; 0.0
33 ; 4.3799819596942335E7 ; 1.2058316310047493E9 ; 1.37628785512993E9 ; 3.0048411906537834E10 ; 0.0
34 ; 4.3847735692810655E7 ; 1.2058661489507434E9 ; 1.4200876747268724E9 ; 3.1254243537542583E10 ; 0.0
35 ; 4.3879505301849306E7 ; 1.2059018047770047E9 ; 1.463935410419683E9 ; 3.246010968649333E10 ; 0.0
36 ; 4.392586820947373E7 ; 1.2059385663939164E9 ; 1.5078149157215323E9 ; 3.3666011491270332E10 ; 0.0
37 ; 4.395820631873872E7 ; 1.205976401839499E9 ; 1.551740783931006E9 ; 3.4871950057664246E10 ; 0.0
38 ; 4.399669731428486E7 ; 1.2060152793566933E9 ; 1.5956989902497447E9 ; 3.6077926459503746E10 ; 0.0
39 ; 4.403412266414557E7 ; 1.2060551674634268E9 ; 1.6396956875640295E9 ; 3.728394173886044E10 ; 0.0
40 ; 4.4061783286371455E7 ; 1.2060960350156136E9 ; 1.683729810228175E9 ; 3.848999690632387E10 ; 0.0
41 ; 4.4102235946052305E7 ; 1.2061378512632918E9 ; 1.7277915935145464E9 ; 3.969609294133948E10 ; 0.0
42 ; 4.413225405394114E7 ; 1.2061805859001565E9 ; 1.7718938294605987E9 ; 4.090223079260277E10 ; 0.0
43 ; 4.416451029479394E7 ; 1.206224209106795E9 ; 1.81602608351454E9 ; 4.210841137850292E10 ; 0.0
44 ; 4.4190516572733276E7 ; 1.2062686915879529E9 ; 1.8601905938093338E9 ; 4.331463558760972E10 ; 0.0
45 ; 4.42109495989351E7 ; 1.2063140046041856E9 ; 1.904381110382067E9 ; 4.452090427919767E10 ; 0.0
46 ; 4.423225581859483E7 ; 1.2063601199982686E9 ; 1.948592059981002E9 ; 4.572721828380186E10 ; 0.0
47 ; 4.426071933862869E7 ; 1.2064070102167385E9 ; 1.992824315799597E9 ; 4.6933578403800125E10 ; 0.0
48 ; 4.427317533473786E7 ; 1.2064546483269453E9 ; 2.0370850351382258E9 ; 4.813998541401686E10 ; 0.0
49 ; 4.428736019237289E7 ; 1.2065030080299876E9 ; 2.0813582104729636E9 ; 4.93464400623438E10 ; 0.0
50 ; 4.430468242094241E7 ; 1.2065520636698942E9 ; 2.1256455706653364E9 ; 5.0552943070373795E10 ; 0.0
51 ; 4.431815987909695E7 ; 1.2066017902394109E9 ; 2.169950253086279E9 ; 5.1759495134043686E10 ; 0.0
52 ; 4.43325370772538E7 ; 1.2066521633827233E9 ; 2.214268412965376E9 ; 5.29660969242831E10 ; 0.0
53 ; 4.433653423247064E7 ; 1.206703159395442E9 ; 2.2586009500426297E9 ; 5.417274908766582E10 ; 0.0
54 ; 4.4359377345201224E7 ; 1.2067547552221575E9 ; 2.3029374842751E9 ; 5.537945224706126E10 ; 0.0
55 ; 4.4365888294856474E7 ; 1.2068069284518414E9 ; 2.3472968616203012E9 ; 5.658620700228342E10 ; 0.0
56 ; 4.437841956921519E7 ; 1.2068596573113701E9 ; 2.391662749915158E9 ; 5.779301393073526E10 ; 0.0
57 ; 4.439451269372325E7 ; 1.206912920657411E9 ; 2.436041169484373E9 ; 5.899987358804663E10 ; 0.0
58 ; 4.439805168858349E7 ; 1.2069666979669018E9 ; 2.4804356821780963E9 ; 6.020678650870404E10 ; 0.0
59 ; 4.4406903270455554E7 ; 1.20702096932633E9 ; 2.5248337338666797E9 ; 6.1413753206670944E10 ; 0.0
60 ; 4.442076772201668E7 ; 1.2070757154200063E9 ; 2.569240637137135E9 ; 6.262077417599728E10 ; 0.0
61 ; 4.442592085647942E7 ; 1.2071309175175033E9 ; 2.613661404859152E9 ; 6.382784989141728E10 ; 0.0
62 ; 4.443674157512655E7 ; 1.2071865574604135E9 ; 2.6580873257156315E9 ; 6.5034980808934784E10 ; 0.0
63 ; 4.444659434779525E7 ; 1.2072426176485748E9 ; 2.702524067290758E9 ; 6.6242167366395195E10 ; 0.0
64 ; 4.4456121842254356E7 ; 1.2072990810258832E9 ; 2.7469706616385536E9 ; 6.744940998404377E10 ; 0.0
65 ; 4.446424933039054E7 ; 1.20735593106581E9 ; 2.791426783480808E9 ; 6.865670906506966E10 ; 0.0
66 ; 4.447139258489615E7 ; 1.2074131517567189E9 ; 2.835891032811198E9 ; 6.986406499613547E10 ; 0.0
67 ; 4.4475906152936146E7 ; 1.20747072758708E9 ; 2.8803624253960943E9 ; 7.107147814789218E10 ; 0.0
68 ; 4.4491864585818015E7 ; 1.2075286435306458E9 ; 2.9248383315490303E9 ; 7.227894887547926E10 ; 0.0
69 ; 4.448427479280986E7 ; 1.207586885031673E9 ; 2.969330196134848E9 ; 7.34864775190099E10 ; 0.0
70 ; 4.449207986163426E7 ; 1.2076454379902298E9 ; 3.013814470927658E9 ; 7.469406440404158E10 ; 0.0
71 ; 4.4497127280521154E7 ; 1.2077042887476606E9 ; 3.0583065507892923E9 ; 7.590170984203181E10 ; 0.0
72 ; 4.450232320663272E7 ; 1.2077634240722332E9 ; 3.1028036780698137E9 ; 7.710941413077948E10 ; 0.0
73 ; 4.4511796584760554E7 ; 1.2078228311450145E9 ; 3.1473060012764463E9 ; 7.831717755485172E10 ; 0.0
74 ; 4.452149287193891E7 ; 1.2078824975460088E9 ; 3.191817797861207E9 ; 7.952500038599673E10 ; 0.0
75 ; 4.452089144981545E7 ; 1.2079424112405715E9 ; 3.2363392907331457E9 ; 8.073288288354274E10 ; 0.0
76 ; 4.452694414490258E7 ; 1.2080025605661333E9 ; 3.280860182182961E9 ; 8.194082529478331E10 ; 0.0
77 ; 4.452051900243905E7 ; 1.2080629342192397E9 ; 3.3253871263278637E9 ; 8.314882785534944E10 ; 0.0
78 ; 4.45114918601121E7 ; 1.2081235212429287E9 ; 3.3699076453303027E9 ; 8.435689078956868E10 ; 0.0
79 ; 4.449617247902322E7 ; 1.2081843110144467E9 ; 3.414419137190415E9 ; 8.556501431081161E10 ; 0.0
80 ; 4.449117378906018E7 ; 1.2082452932333164E9 ; 3.4589153096694384E9 ; 8.677319862182607E10 ; 0.0
81 ; 4.448065784541881E7 ; 1.2083064579097552E9 ; 3.5034064834584985E9 ; 8.798144391505939E10 ; 0.0
82 ; 4.4471529639251515E7 ; 1.2083677953534522E9 ; 3.5478871413039174E9 ; 8.918975037296915E10 ; 0.0
83 ; 4.444959829248739E7 ; 1.2084292961626956E9 ; 3.592358670943169E9 ; 9.03981181683226E10 ; 0.0
84 ; 4.444144110962654E7 ; 1.2084909512138577E9 ; 3.6368082692356567E9 ; 9.160654746448529E10 ; 0.0
85 ; 4.442718397712949E7 ; 1.208552751651226E9 ; 3.6812497103452835E9 ; 9.281503841569914E10 ; 0.0
86 ; 4.441812599459238E7 ; 1.2086146888771825E9 ; 3.725676894322413E9 ; 9.402359116735037E10 ; 0.0
87 ; 4.440099539820414E7 ; 1.2086767545427222E9 ; 3.770095020317005E9 ; 9.523220585622755E10 ; 0.0
88 ; 4.438374979889738E7 ; 1.208738940538305E9 ; 3.8144960157152095E9 ; 9.644088261077028E10 ; 0.0
89 ; 4.4372386406732805E7 ; 1.2088012389850368E9 ; 3.8588797655141068E9 ; 9.764962155130858E10 ; 0.0
90 ; 4.4353777696945965E7 ; 1.2088636422261677E9 ; 3.90325215192084E9 ; 9.885842279029361E10 ; 0.0
91 ; 4.434203905960222E7 ; 1.2089261428189044E9 ; 3.947605929617786E9 ; 1.0006728643251978E11 ; 0.0
92 ; 4.4326404528374575E7 ; 1.2089887335265255E9 ; 3.991947968677388E9 ; 1.0127621257533868E11 ; 0.0
93 ; 4.431351172441316E7 ; 1.209051407310791E9 ; 4.036274373205763E9 ; 1.024852013088652E11 ; 0.0
94 ; 4.429100088031036E7 ; 1.2091141573246398E9 ; 4.080587884930176E9 ; 1.03694252716176E11 ; 0.0
95 ; 4.4270746737367444E7 ; 1.2091769769051642E9 ; 4.1248788858104863E9 ; 1.0490336687350064E11 ; 0.0
96 ; 4.426123700473577E7 ; 1.2092398595668542E9 ; 4.169149632547854E9 ; 1.061125438504058E11 ; 0.0
97 ; 4.422964859847872E7 ; 1.2093027989951015E9 ; 4.21341086955259E9 ; 1.0732178370997266E11 ; 0.0
98 ; 4.421653939120921E7 ; 1.2093657890399547E9 ; 4.2576405181510687E9 ; 1.0853108650896776E11 ; 0.0
99 ; 4.42016252907662E7 ; 1.2094288237101188E9 ; 4.301857057542278E9 ; 1.097404522980077E11 ; 0.0
100 ; 4.417832060382774E7 ; 1.209491897167188E9 ; 4.346058682833044E9 ; 1.1094988112171782E11 ; 0.0
101 ; 4.4160769493670024E7 ; 1.2095550037201047E9 ; 4.390237003436872E9 ; 1.1215937301888501E11 ; 0.0
102 ; 4.4137823596853584E7 ; 1.2096181378198361E9 ; 4.434397772930542E9 ; 1.1336892802260512E11 ; 0.0
103 ; 4.411923189868672E7 ; 1.2096812940542617E9 ; 4.478535596527395E9 ; 1.1457854616042496E11 ; 0.0
104 ; 4.410362655872878E7 ; 1.2097444671432602E9 ; 4.522654828426082E9 ; 1.1578822745447922E11 ; 0.0
105 ; 4.407668276915312E7 ; 1.2098076519339933E9 ; 4.566758454984811E9 ; 1.1699797192162248E11 ; 0.0
106 ; 4.405612753979446E7 ; 1.2098708433963752E9 ; 4.610835137753963E9 ; 1.1820777957355647E11 ; 0.0
107 ; 4.403168656117824E7 ; 1.2099340366187203E9 ; 4.654891265293758E9 ; 1.1941765041695285E11 ; 0.0
108 ; 4.401136018800868E7 ; 1.2099972268035655E9 ; 4.698922951854937E9 ; 1.2062758445357156E11 ; 0.0
109 ; 4.399049960064034E7 ; 1.210060409263657E9 ; 4.742934312042945E9 ; 1.2183758168037512E11 ; 0.0
110 ; 4.396126905481987E7 ; 1.210123579418096E9 ; 4.786924811643585E9 ; 1.2304764208963878E11 ; 0.0
111 ; 4.393847935308185E7 ; 1.2101867327886386E9 ; 4.830886080698405E9 ; 1.2425776566905687E11 ; 0.0
112 ; 4.391261067658863E7 ; 1.2102498649961405E9 ; 4.874824560051487E9 ; 1.254679524018455E11 ; 0.0
113 ; 4.389291802089006E7 ; 1.2103129717571425E9 ; 4.918737170728076E9 ; 1.2667820226684164E11 ; 0.0
114 ; 4.3863098269871116E7 ; 1.2103760488805947E9 ; 4.962630088748966E9 ; 1.2788851523859879E11 ; 0.0
115 ; 4.3839859477081396E7 ; 1.2104390922647035E9 ; 5.006493187018837E9 ; 1.2909889128747939E11 ; 0.0
116 ; 4.3814558004676946E7 ; 1.2105020978939097E9 ; 5.050333046495918E9 ; 1.303093303797441E11 ; 0.0
117 ; 4.3789639773783095E7 ; 1.2105650618359814E9 ; 5.094147604500595E9 ; 1.31519832477638E11 ; 0.0
118 ; 4.37641187653257E7 ; 1.2106279802392223E9 ; 5.137937244274378E9 ; 1.3273039753947398E11 ; 0.0
119 ; 4.3733868609324515E7 ; 1.2106908493297915E9 ; 5.181701363039703E9 ; 1.3394102551971321E11 ; 0.0
120 ; 4.37057947502285E7 ; 1.2107536654091249E9 ; 5.225435231649028E9 ; 1.35151716369043E11 ; 0.0
121 ; 4.3679907652842626E7 ; 1.2108164248514602E9 ; 5.269141026399257E9 ; 1.3636247003445212E11 ; 0.0
122 ; 4.364321460145692E7 ; 1.210879124101458E9 ; 5.312820934052099E9 ; 1.375732864593036E11 ; 0.0
123 ; 4.361854902309685E7 ; 1.2109417596719146E9 ; 5.356464148653556E9 ; 1.3878416558340506E11 ; 0.0
124 ; 4.359373671114438E7 ; 1.2110043281415634E9 ; 5.400082697676653E9 ; 1.3999510734307697E11 ; 0.0
125 ; 4.355835152730181E7 ; 1.211066826152965E9 ; 5.443676434387797E9 ; 1.4120611167121854E11 ; 0.0
126 ; 4.3534030395903364E7 ; 1.2111292504104736E9 ; 5.487234785915099E9 ; 1.424171784973715E11 ; 0.0
127 ; 4.349709055134331E7 ; 1.2111915976782846E9 ; 5.530768816311003E9 ; 1.4362830774778195E11 ; 0.0
128 ; 4.3470277547849834E7 ; 1.2112538647785592E9 ; 5.574265906862346E9 ; 1.4483949934546024E11 ; 0.0
129 ; 4.343914235316583E7 ; 1.2113160485896165E9 ; 5.617736184410195E9 ; 1.460507532102388E11 ; 0.0
130 ; 4.340049226804428E7 ; 1.2113781460441992E9 ; 5.661175326763361E9 ; 1.4726206925882843E11 ; 0.0
131 ; 4.336117227871536E7 ; 1.211440154127801E9 ; 5.704575819031405E9 ; 1.4847344740487262E11 ; 0.0
132 ; 4.330958084320988E7 ; 1.2115020698770618E9 ; 5.747936991310121E9 ; 1.4968488755900043E11 ; 0.0
133 ; 4.326129712635476E7 ; 1.211563890378221E9 ; 5.791246572153331E9 ; 1.508963896288775E11 ; 0.0
134 ; 4.321449913794634E7 ; 1.2116256127656305E9 ; 5.834507869279686E9 ; 1.5210795351925574E11 ; 0.0
135 ; 4.317021212657344E7 ; 1.211687234220323E9 ; 5.877722368417632E9 ; 1.5331957913202136E11 ; 0.0
136 ; 4.3119104933951735E7 ; 1.2117487519686346E9 ; 5.920892580544206E9 ; 1.545312663662417E11 ; 0.0
137 ; 4.307497252749011E7 ; 1.2118101632808788E9 ; 5.964011685478157E9 ; 1.5574301511821033E11 ; 0.0
138 ; 4.3029321620085254E7 ; 1.2118714654700701E9 ; 6.007086658005647E9 ; 1.569548252814912E11 ; 0.0
139 ; 4.297421430544582E7 ; 1.2119326558906946E9 ; 6.050115979625732E9 ; 1.5816669674696127E11 ; 0.0
140 ; 4.293543690165832E7 ; 1.2119937319375281E9 ; 6.093090193931178E9 ; 1.5937862940285196E11 ; 0.0
141 ; 4.2881490359719634E7 ; 1.212054691044494E9 ; 6.136025630832836E9 ; 1.605906231347895E11 ; 0.0
142 ; 4.283143155577892E7 ; 1.2121155306835673E9 ; 6.178907121192555E9 ; 1.6180267782583398E11 ; 0.0
143 ; 4.278024900798953E7 ; 1.212176248363717E9 ; 6.221738552748334E9 ; 1.6301479335651755E11 ; 0.0
144 ; 4.273091019033363E7 ; 1.2122368416298883E9 ; 6.264518801756324E9 ; 1.6422696960488126E11 ; 0.0
145 ; 4.270232307607572E7 ; 1.2122973080620184E9 ; 6.307249711946657E9 ; 1.6543920644651114E11 ; 0.0
146 ; 4.2667502089921385E7 ; 1.2123576452740946E9 ; 6.349952035022733E9 ; 1.6665150375457315E11 ; 0.0
147 ; 4.262875278960231E7 ; 1.2124178509132397E9 ; 6.392619537112654E9 ; 1.6786386139984726E11 ; 0.0
148 ; 4.25946562100661E7 ; 1.212477922658835E9 ; 6.435248289902256E9 ; 1.690762792507605E11 ; 0.0
149 ; 4.257045773109103E7 ; 1.212537858221673E9 ; 6.477842946112322E9 ; 1.7028875717341934E11 ; 0.0
150 ; 4.252937444760728E7 ; 1.2125976553431413E9 ; 6.520413403843413E9 ; 1.7150129503164102E11 ; 0.0
151 ; 4.2492337623670146E7 ; 1.2126573117944345E9 ; 6.56294277829102E9 ; 1.7271389268698416E11 ; 0.0
152 ; 4.246376312927786E7 ; 1.212716825375796E9 ; 6.605435115914691E9 ; 1.739265499987786E11 ; 0.0
153 ; 4.242304762093569E7 ; 1.2127761939157858E9 ; 6.647898879043969E9 ; 1.751392668241544E11 ; 0.0
154 ; 4.238781690767005E7 ; 1.212835415270572E9 ; 6.690321926664905E9 ; 1.7635204301807016E11 ; 0.0
155 ; 4.235210968248862E7 ; 1.2128944873232532E9 ; 6.732709743572575E9 ; 1.7756487843334073E11 ; 0.0
156 ; 4.231379920943496E7 ; 1.212953407983198E9 ; 6.775061853255063E9 ; 1.7877777292066397E11 ; 0.0
157 ; 4.2281682033089094E7 ; 1.2130121751854126E9 ; 6.817375652464498E9 ; 1.7999072632864716E11 ; 0.0
158 ; 4.2246085850211434E7 ; 1.2130707868899276E9 ; 6.859657334497586E9 ; 1.8120373850383258E11 ; 0.0
159 ; 4.2209167717419095E7 ; 1.2131292410812075E9 ; 6.901903420347797E9 ; 1.824168092907225E11 ; 0.0
160 ; 4.21733420670483E7 ; 1.2131875357675812E9 ; 6.944112588065216E9 ; 1.836299385318037E11 ; 0.0
161 ; 4.2137477799771465E7 ; 1.2132456689806898E9 ; 6.986285930132264E9 ; 1.848431260675713E11 ; 0.0
162 ; 4.209805029674404E7 ; 1.2133036387749577E9 ; 7.028423407932035E9 ; 1.8605637173655197E11 ; 0.0
163 ; 4.206793176527943E7 ; 1.2133614432270763E9 ; 7.07052145822878E9 ; 1.8726967537532693E11 ; 0.0
164 ; 4.203270688266873E7 ; 1.213419080435511E9 ; 7.11258938999406E9 ; 1.8848303681855402E11 ; 0.0
165 ; 4.199262783393031E7 ; 1.2134765485200222E9 ; 7.154622096876728E9 ; 1.8969645589898953E11 ; 0.0
166 ; 4.195108263201412E7 ; 1.213533845621201E9 ; 7.196614724710658E9 ; 1.9090993244750955E11 ; 0.0
167 ; 4.1914981875855565E7 ; 1.213590969900025E9 ; 7.238565807342672E9 ; 1.9212346629313077E11 ; 0.0
168 ; 4.187589916036389E7 ; 1.2136479195374248E9 ; 7.280480789218528E9 ; 1.933370572630308E11 ; 0.0
169 ; 4.184312165001956E7 ; 1.21370469273387E9 ; 7.322356688378892E9 ; 1.945507051825682E11 ; 0.0
170 ; 4.180596343714825E7 ; 1.213761287708963E9 ; 7.364199810028912E9 ; 1.9576440987530206E11 ; 0.0
171 ; 4.17631324103879E7 ; 1.2138177027010512E9 ; 7.40600577346606E9 ; 1.9697817116301102E11 ; 0.0
172 ; 4.1731015312107146E7 ; 1.2138739359668527E9 ; 7.447768905876448E9 ; 1.9819198886571207E11 ; 0.0
173 ; 4.168627326229963E7 ; 1.2139299857810888E9 ; 7.489499921188555E9 ; 1.9940586280167892E11 ; 0.0
174 ; 4.166807516603409E7 ; 1.213985850436135E9 ; 7.531186194450854E9 ; 2.0061979278746002E11 ; 0.0
175 ; 4.1639414227334425E7 ; 1.2140415282416813E9 ; 7.572854269616888E9 ; 2.0183377863789615E11 ; 0.0
176 ; 4.162966261831905E7 ; 1.2140970175244012E9 ; 7.614493683844222E9 ; 2.0304782016613782E11 ; 0.0
177 ; 4.159930312821304E7 ; 1.2141523166276374E9 ; 7.656123346462542E9 ; 2.0426191718366223E11 ; 0.0
178 ; 4.157056470869624E7 ; 1.214207423911091E9 ; 7.6977226495907545E9 ; 2.0547606950028986E11 ; 0.0
179 ; 4.155477047491887E7 ; 1.2142623377505271E9 ; 7.739293214299451E9 ; 2.0669027692420096E11 ; 0.0
180 ; 4.152849865701243E7 ; 1.2143170565374856E9 ; 7.78084798477437E9 ; 2.0790453926195148E11 ; 0.0
181 ; 4.150890724952658E7 ; 1.2143715786790042E9 ; 7.822376483431382E9 ; 2.0911885631848895E11 ; 0.0
182 ; 4.148082110242915E7 ; 1.214425902597348E9 ; 7.863885390680909E9 ; 2.1033322789716797E11 ; 0.0
183 ; 4.146479304704042E7 ; 1.2144800267297513E9 ; 7.905366211783339E9 ; 2.1154765379976532E11 ; 0.0
184 ; 4.143447211899024E7 ; 1.2145339495281641E9 ; 7.946831004830379E9 ; 2.1276213382649506E11 ; 0.0
185 ; 4.141582077413478E7 ; 1.2145876694590096E9 ; 7.9882654769493685E9 ; 2.1397666777602322E11 ; 0.0
186 ; 4.138658800392638E7 ; 1.2146411850029469E9 ; 8.029681297723503E9 ; 2.1519125544548224E11 ; 0.0
187 ; 4.136342197534566E7 ; 1.2146944946546447E9 ; 8.071067885727429E9 ; 2.164058966304852E11 ; 0.0
188 ; 4.134239173199371E7 ; 1.2147475969225597E9 ; 8.112431307702775E9 ; 2.1762059112513983E11 ; 0.0
189 ; 4.132497187686327E7 ; 1.2148004903287222E9 ; 8.153773699434769E9 ; 2.1883533872206238E11 ; 0.0
190 ; 4.129390488945865E7 ; 1.21485317340853E9 ; 8.195098671311632E9 ; 2.200501392123911E11 ; 0.0
191 ; 4.1276378821689755E7 ; 1.2149056447105477E9 ; 8.236392576201091E9 ; 2.2126499238579965E11 ; 0.0
192 ; 4.125544176660987E7 ; 1.2149579027963133E9 ; 8.27766895502278E9 ; 2.224798980305102E11 ; 0.0
193 ; 4.1226229464708805E7 ; 1.2150099462401497E9 ; 8.318924396789391E9 ; 2.2369485593330652E11 ; 0.0
194 ; 4.120558361253785E7 ; 1.2150617736289835E9 ; 8.360150626254099E9 ; 2.2490986587954666E11 ; 0.0
195 ; 4.117381857042067E7 ; 1.2151133835621686E9 ; 8.401356209866636E9 ; 2.2612492765317566E11 ; 0.0
196 ; 4.115712769159901E7 ; 1.2151647746513166E9 ; 8.442530028437057E9 ; 2.2734004103673782E11 ; 0.0
