CSV File for the Network on Day 212
1 - Minute m 
2 - Power Consumed at minute m 
3 - Power Produced at minute m 
4 - Energy Consumed since the beginning of the day 
5 - Energy Produced since the beginning of the day 
6 - Energy Lost since the beginning of the day 
 
0 ; 486692.4351888921 ; 2.106570945579461E8 ; 0.0 ; 0.0 ; 0.0
1 ; 492627.7680205402 ; 2.1096172718362093E8 ; 486692.4351888921 ; 2.106570945579461E8 ; 356.14
2 ; 496969.307290074 ; 2.118840233125245E8 ; 979320.2032094323 ; 4.21618821741567E8 ; 712.28
3 ; 500462.66686984757 ; 2.1342399598643005E8 ; 1476289.5104995063 ; 6.335028450540915E8 ; 1068.42
4 ; 506297.81635791523 ; 2.1558165733099657E8 ; 1976752.1773693538 ; 8.469268410405215E8 ; 1424.56
5 ; 511098.13619759795 ; 2.18357018357682E8 ; 2483049.993727269 ; 1.0625084983715181E9 ; 1780.6999999999998
6 ; 514791.63297126035 ; 2.2175008877143162E8 ; 2994148.1299248673 ; 1.2808655167292001E9 ; 2136.8399999999997
7 ; 521400.84328384243 ; 2.2576087679121935E8 ; 3508939.7628961275 ; 1.5026156055006318E9 ; 2492.9799999999996
8 ; 523587.9919261871 ; 2.3038938899066556E8 ; 4030340.60617997 ; 1.728376482291851E9 ; 2849.1199999999994
9 ; 528512.3041224151 ; 2.3563563016562116E8 ; 4553928.598106157 ; 1.9587658712825165E9 ; 3205.2599999999993
10 ; 533107.8922526267 ; 2.4149960323476845E8 ; 5082440.902228572 ; 2.1944015014481378E9 ; 3561.399999999999
11 ; 537409.0111524428 ; 2.479813091779669E8 ; 5615548.794481199 ; 2.435901104682906E9 ; 3917.539999999999
12 ; 541128.5734481842 ; 2.5508074701535696E8 ; 6152957.805633642 ; 2.683882413860873E9 ; 4273.679999999999
13 ; 542180.2342166662 ; 2.6279791382825637E8 ; 6694086.379081826 ; 2.9389631608762302E9 ; 4629.82
14 ; 547001.4885681784 ; 2.711328048208144E8 ; 7236266.613298492 ; 3.201761074704487E9 ; 4985.96
15 ; 550884.1561609277 ; 2.8008541341941035E8 ; 7783268.10186667 ; 3.472893879525301E9 ; 5342.1
16 ; 555107.1246938669 ; 2.8965573140507066E8 ; 8334152.258027597 ; 3.752979292944711E9 ; 5698.240000000001
17 ; 558321.0568806266 ; 2.998437490728498E8 ; 8889259.382721465 ; 4.042635024349782E9 ; 6054.380000000001
18 ; 563131.9359747036 ; 3.1064945541128993E8 ; 9447580.439602092 ; 4.342478773422632E9 ; 6410.520000000001
19 ; 566762.2185576765 ; 3.2207283829473203E8 ; 1.0010712375576796E7 ; 4.653128228833922E9 ; 6766.660000000002
20 ; 569843.9681385515 ; 3.341138846814028E8 ; 1.0577474594134472E7 ; 4.9752010671286545E9 ; 7122.800000000002
21 ; 573215.5979577698 ; 3.4677258081074953E8 ; 1.1147318562273024E7 ; 5.309314951810058E9 ; 7478.940000000002
22 ; 578975.6118437663 ; 3.6004891239435345E8 ; 1.1720534160230793E7 ; 5.656087532620808E9 ; 7835.080000000003
23 ; 582152.6819597136 ; 3.7394286479580307E8 ; 1.229950977207456E7 ; 6.0161364450151615E9 ; 8191.220000000003
24 ; 585493.8216780309 ; 3.8845442319603765E8 ; 1.2881662454034273E7 ; 6.390079309810965E9 ; 8547.360000000002
25 ; 590623.2820542116 ; 4.0095965453816473E8 ; 1.3467156275712304E7 ; 6.778533733007002E9 ; 8903.500000000002
26 ; 593324.4726519213 ; 4.0096563973147345E8 ; 1.4057779557766516E7 ; 7.179493387545167E9 ; 9259.640000000001
27 ; 598154.0866533277 ; 4.009719028128041E8 ; 1.4651104030418437E7 ; 7.58045902727664E9 ; 9615.78
28 ; 601712.7215690601 ; 4.0097842953330076E8 ; 1.5249258117071765E7 ; 7.981430930089444E9 ; 9971.92
29 ; 605006.3950880831 ; 4.009852060206243E8 ; 1.5850970838640824E7 ; 8.382409359622745E9 ; 10328.06
30 ; 608675.5984093862 ; 4.009922188384677E8 ; 1.6455977233728908E7 ; 8.78339456564337E9 ; 10684.199999999999
31 ; 612287.5475438279 ; 4.0099945503139484E8 ; 1.7064652832138292E7 ; 9.184386784481838E9 ; 11040.339999999998
32 ; 615319.8339552538 ; 4.0100690215667343E8 ; 1.767694037968212E7 ; 9.585386239513233E9 ; 11396.479999999998
33 ; 619830.0994564076 ; 4.010145483048055E8 ; 1.8292260213637374E7 ; 9.986393141669907E9 ; 11752.619999999997
34 ; 623381.4754336596 ; 4.010223821104223E8 ; 1.891209031309378E7 ; 1.0387407689974712E10 ; 12108.759999999997
35 ; 627376.1486213047 ; 4.010303927551179E8 ; 1.953547178852744E7 ; 1.0788430072085135E10 ; 12464.899999999996
36 ; 630579.063338295 ; 4.0103856996366906E8 ; 2.0162847937148746E7 ; 1.1189460464840252E10 ; 12821.039999999995
37 ; 633876.2563362331 ; 4.010469039949454E8 ; 2.079342700048704E7 ; 1.159049903480392E10 ; 13177.179999999995
38 ; 637299.4280328394 ; 4.010553856286567E8 ; 2.1427303256823275E7 ; 1.1991545938798866E10 ; 13533.319999999994
39 ; 639640.6840952206 ; 4.010640061489358E8 ; 2.2064602684856113E7 ; 1.2392601324427523E10 ; 13889.459999999994
40 ; 640518.9828809428 ; 4.0107275732560635E8 ; 2.2704243368951336E7 ; 1.2793665330576458E10 ; 14245.599999999993
41 ; 646348.2741537258 ; 4.01081631393851E8 ; 2.3344762351832278E7 ; 1.3194738087902065E10 ; 14601.739999999993
42 ; 648279.6408367449 ; 4.010906210328734E8 ; 2.3991110625986002E7 ; 1.3595819719295916E10 ; 14957.879999999992
43 ; 649795.3062966618 ; 4.010997193440376E8 ; 2.4639390266822748E7 ; 1.3996910340328789E10 ; 15314.019999999991
44 ; 652966.218682337 ; 4.0110891982887495E8 ; 2.528918557311941E7 ; 1.4398010059672827E10 ; 15670.15999999999
45 ; 655488.5719324811 ; 4.0111821636726624E8 ; 2.5942151791801747E7 ; 1.4799118979501701E10 ; 16026.29999999999
46 ; 659414.6734186145 ; 4.011276031960372E8 ; 2.6597640363734227E7 ; 1.5200237195868967E10 ; 16382.43999999999
47 ; 662248.8408287661 ; 4.011370748881482E8 ; 2.725705503715284E7 ; 1.5601364799065004E10 ; 16738.57999999999
48 ; 664940.0090179496 ; 4.0114662633261025E8 ; 2.7919303877981607E7 ; 1.6002501873953152E10 ; 17094.71999999999
49 ; 667765.6519071996 ; 4.0115625271521866E8 ; 2.8584243886999555E7 ; 1.6403648500285763E10 ; 17450.85999999999
50 ; 669631.2172740856 ; 4.0116594950016594E8 ; 2.9252009538906753E7 ; 1.6804804753000982E10 ; 17806.99999999999
51 ; 670395.8861357208 ; 4.0117571241256726E8 ; 2.9921640756180838E7 ; 1.720597070250115E10 ; 18163.13999999999
52 ; 672584.503341304 ; 4.011855374219129E8 ; 3.0592036642316557E7 ; 1.7607146414913715E10 ; 18519.279999999988
53 ; 674729.0204460154 ; 4.011954207264452E8 ; 3.126462114565786E7 ; 1.800833195233563E10 ; 18875.419999999987
54 ; 677947.7655596068 ; 4.012053587384464E8 ; 3.1939350166103873E7 ; 1.8409527373062073E10 ; 19231.559999999987
55 ; 679056.6645976857 ; 4.012153480704131E8 ; 3.261729793166348E7 ; 1.8810732731800518E10 ; 19587.699999999986
56 ; 681273.4325959914 ; 4.012253855220883E8 ; 3.3296354596261166E7 ; 1.921194807987093E10 ; 19943.839999999986
57 ; 682678.5333167643 ; 4.012354680683148E8 ; 3.397762802885716E7 ; 1.9613173465393017E10 ; 20299.979999999985
58 ; 686065.2774853668 ; 4.012455928476741E8 ; 3.466030656217392E7 ; 2.001440893346133E10 ; 20656.119999999984
59 ; 688247.174578101 ; 4.0125575715186906E8 ; 3.534637183965928E7 ; 2.0415654526309006E10 ; 21012.259999999984
60 ; 691383.8841185244 ; 4.0126595841581166E8 ; 3.603461901423738E7 ; 2.0816910283460876E10 ; 21368.399999999983
61 ; 692870.5066100776 ; 4.0127619420837486E8 ; 3.672600289835591E7 ; 2.121817624187669E10 ; 21724.539999999983
62 ; 695250.8796344404 ; 4.0128646222376835E8 ; 3.741887340496599E7 ; 2.1619452436085064E10 ; 22080.679999999982
63 ; 698686.7775588457 ; 4.012967602735001E8 ; 3.811412428460043E7 ; 2.2020738898308834E10 ; 22436.81999999998
64 ; 699379.8949462861 ; 4.013070862788863E8 ; 3.881281106215928E7 ; 2.2422035658582333E10 ; 22792.95999999998
65 ; 702071.2492123053 ; 4.0131743826407295E8 ; 3.951219095710556E7 ; 2.2823342744861217E10 ; 23149.09999999998
66 ; 704808.1479420629 ; 4.0132781434953594E8 ; 4.0214262206317864E7 ; 2.322466018312529E10 ; 23505.23999999998
67 ; 705350.6186483215 ; 4.013382127460263E8 ; 4.091907035425993E7 ; 2.3625987997474827E10 ; 23861.37999999998
68 ; 707183.2390550245 ; 4.013486317489307E8 ; 4.162442097290825E7 ; 2.402732621022085E10 ; 24217.51999999998
69 ; 712091.8059631821 ; 4.0135906973301804E8 ; 4.233160421196327E7 ; 2.4428674841969784E10 ; 24573.659999999978
70 ; 712041.0545173638 ; 4.01369525147545E8 ; 4.3043696017926455E7 ; 2.48300339117028E10 ; 24929.799999999977
71 ; 712740.6877415255 ; 4.0137999651169497E8 ; 4.375573707244382E7 ; 2.5231403436850346E10 ; 25285.939999999977
72 ; 716509.0674228948 ; 4.0139048241032803E8 ; 4.4468477760185346E7 ; 2.563278343336204E10 ; 25642.079999999976
73 ; 717682.0219354349 ; 4.01400981490018E8 ; 4.518498682760824E7 ; 2.603417391577237E10 ; 25998.219999999976
74 ; 719482.728426818 ; 4.0141149245535743E8 ; 4.5902668849543676E7 ; 2.6435574897262386E10 ; 26354.359999999975
75 ; 719827.7708514532 ; 4.0142201406551063E8 ; 4.66221515779705E7 ; 2.6836986389717743E10 ; 26710.499999999975
76 ; 722159.1790625803 ; 4.014325451309979E8 ; 4.734197934882195E7 ; 2.7238408403783253E10 ; 27066.639999999974
77 ; 724756.8552906128 ; 4.014430845106932E8 ; 4.8064138527884535E7 ; 2.763984094891425E10 ; 27422.779999999973
78 ; 726622.42471134 ; 4.014536311090211E8 ; 4.878889538317515E7 ; 2.8041284033424942E10 ; 27778.919999999973
79 ; 727795.1554070115 ; 4.0146418387333846E8 ; 4.951551780788649E7 ; 2.8442737664533962E10 ; 28135.059999999972
80 ; 728633.4053084463 ; 4.01474741791487E8 ; 5.02433129632935E7 ; 2.88442018484073E10 ; 28491.19999999997
81 ; 730248.1092916095 ; 4.01485303889506E8 ; 5.097194636860195E7 ; 2.9245676590198788E10 ; 28847.33999999997
82 ; 732085.4544524573 ; 4.014958692294926E8 ; 5.170219447789356E7 ; 2.9647161894088295E10 ; 29203.47999999997
83 ; 734200.204001921 ; 4.0150643690760005E8 ; 5.2434279932346016E7 ; 3.0048657763317787E10 ; 29559.61999999997
84 ; 736480.3828067491 ; 4.015170060521635E8 ; 5.3168480136347935E7 ; 3.0450164200225388E10 ; 29915.75999999997
85 ; 737713.7243240458 ; 4.0152757582194525E8 ; 5.390496051915468E7 ; 3.085168120627755E10 ; 30271.89999999997
86 ; 740147.1833024333 ; 4.0153814540449023E8 ; 5.464267424347873E7 ; 3.1253208782099495E10 ; 30628.039999999968
87 ; 741745.6906073713 ; 4.015487140145854E8 ; 5.538282142678116E7 ; 3.1654746927503986E10 ; 30984.179999999968
88 ; 743257.2419664144 ; 4.015592808928137E8 ; 5.612456711738853E7 ; 3.205629564151857E10 ; 31340.319999999967
89 ; 744567.636068094 ; 4.0156984530419886E8 ; 5.686782435935494E7 ; 3.2457854922411385E10 ; 31696.459999999966
90 ; 743002.1882500313 ; 4.015804065369326E8 ; 5.7612391995423034E7 ; 3.2859424767715584E10 ; 32052.599999999966
91 ; 747227.7979156052 ; 4.015909639011792E8 ; 5.835539418367307E7 ; 3.3261005174252518E10 ; 32408.739999999965
92 ; 748294.8036468896 ; 4.0160151672795326E8 ; 5.910262198158868E7 ; 3.3662596138153698E10 ; 32764.879999999965
93 ; 750496.7771984854 ; 4.016120643680644E8 ; 5.985091678523557E7 ; 3.4064197654881653E10 ; 33121.01999999997
94 ; 750850.6306122089 ; 4.0162260619112504E8 ; 6.0601413562434055E7 ; 3.446580971924972E10 ; 33477.15999999997
95 ; 751975.8063815564 ; 4.016331415846168E8 ; 6.1352264193046264E7 ; 3.486743232544084E10 ; 33833.29999999997
96 ; 752429.4959338731 ; 4.016436699530126E8 ; 6.210423999942782E7 ; 3.526906546702546E10 ; 34189.439999999966
97 ; 754467.657399976 ; 4.01654190716949E8 ; 6.285666949536169E7 ; 3.567070913697847E10 ; 34545.579999999965
98 ; 754262.3023856878 ; 4.016647033124474E8 ; 6.361113715276167E7 ; 3.607236332769542E10 ; 34901.719999999965
99 ; 758021.1583676538 ; 4.016752071901797E8 ; 6.4365399455147356E7 ; 3.6474028031007866E10 ; 35257.859999999964
100 ; 757269.3463336384 ; 4.016857018147762E8 ; 6.512342061351501E7 ; 3.6875703238198044E10 ; 35613.99999999996
101 ; 760167.228740772 ; 4.016961866641723E8 ; 6.588068995984865E7 ; 3.727738894001282E10 ; 35970.13999999996
102 ; 759646.4707977964 ; 4.0170666122899306E8 ; 6.6640857188589424E7 ; 3.767908512667699E10 ; 36326.27999999996
103 ; 762634.6825028764 ; 4.01717125011971E8 ; 6.740050365938722E7 ; 3.808079178790598E10 ; 36682.41999999996
104 ; 762186.648391828 ; 4.0172757752739704E8 ; 6.81631383418901E7 ; 3.848250891291795E10 ; 37038.55999999996
105 ; 763607.3864732955 ; 4.017380183006016E8 ; 6.892532499028192E7 ; 3.888423649044535E10 ; 37394.69999999996
106 ; 764757.8342659004 ; 4.017484468674643E8 ; 6.968893237675522E7 ; 3.928597450874595E10 ; 37750.83999999996
107 ; 765608.1212569149 ; 4.0175886277394974E8 ; 7.045369021102113E7 ; 3.968772295561341E10 ; 38106.97999999996
108 ; 767284.3801974361 ; 4.01769265575669E8 ; 7.121929833227804E7 ; 4.008948181838736E10 ; 38463.11999999996
109 ; 768000.2517830009 ; 4.017796548374645E8 ; 7.198658271247548E7 ; 4.049125108396303E10 ; 38819.25999999996
110 ; 769102.8596188358 ; 4.0179003013301706E8 ; 7.275458296425848E7 ; 4.089303073880049E10 ; 39175.39999999996
111 ; 770595.8077706653 ; 4.018003910444734E8 ; 7.352368582387732E7 ; 4.129482076893351E10 ; 39531.53999999996
112 ; 771178.5625040963 ; 4.0181073716209364E8 ; 7.429428163164799E7 ; 4.169662115997798E10 ; 39887.67999999996
113 ; 772497.6109018067 ; 4.018210680839173E8 ; 7.506546019415209E7 ; 4.2098431897140076E10 ; 40243.819999999956
114 ; 772730.1866866599 ; 4.018313834154459E8 ; 7.583795780505389E7 ; 4.250025296522399E10 ; 40599.959999999955
115 ; 773673.722388346 ; 4.0184168276934296E8 ; 7.661068799174055E7 ; 4.2902084348639435E10 ; 40956.099999999955
116 ; 773797.7927029692 ; 4.0185196576514834E8 ; 7.73843617141289E7 ; 4.3303926031408775E10 ; 41312.239999999954
117 ; 775059.2603863548 ; 4.01862232029008E8 ; 7.815815950683187E7 ; 4.370577799717393E10 ; 41668.379999999954
118 ; 776183.378029047 ; 4.018724811934166E8 ; 7.893321876721822E7 ; 4.4107640229202934E10 ; 42024.51999999995
119 ; 777920.376052178 ; 4.0188271289697385E8 ; 7.970940214524727E7 ; 4.450951271039635E10 ; 42380.65999999995
120 ; 778545.9585636202 ; 4.0189292678415227E8 ; 8.048732252129944E7 ; 4.491139542329332E10 ; 42736.79999999995
121 ; 778602.8562050288 ; 4.0190312250507677E8 ; 8.126586847986306E7 ; 4.531328835007747E10 ; 43092.93999999995
122 ; 780633.1019710413 ; 4.019132997153152E8 ; 8.20444713360681E7 ; 4.571519147258254E10 ; 43449.07999999995
123 ; 780274.0131766842 ; 4.019234580756792E8 ; 8.282510443803914E7 ; 4.611710477229786E10 ; 43805.21999999995
124 ; 778729.6084926565 ; 4.019335972520341E8 ; 8.360537845121582E7 ; 4.6519028230373535E10 ; 44161.35999999995
125 ; 778777.7796884377 ; 4.0194371691511893E8 ; 8.438410805970848E7 ; 4.692096182762557E10 ; 44517.49999999995
126 ; 779516.897721716 ; 4.0195381674037445E8 ; 8.516288583939691E7 ; 4.732290554454069E10 ; 44873.63999999995
127 ; 777976.0594429446 ; 4.019638964077795E8 ; 8.594240273711863E7 ; 4.772485936128106E10 ; 45229.77999999995
128 ; 778127.030546198 ; 4.019739556016953E8 ; 8.672037879656157E7 ; 4.8126823257688835E10 ; 45585.91999999995
129 ; 778162.2360983619 ; 4.019839940107169E8 ; 8.749850582710777E7 ; 4.852879721329053E10 ; 45942.05999999995
130 ; 778189.8706211973 ; 4.019940113275318E8 ; 8.827666806320614E7 ; 4.893078120730125E10 ; 46298.199999999946
131 ; 776444.4539523154 ; 4.02004007248785E8 ; 8.905485793382734E7 ; 4.933277521862878E10 ; 46654.339999999946
132 ; 777910.5770063659 ; 4.020139814749502E8 ; 8.983130238777965E7 ; 4.973477922587756E10 ; 47010.479999999945
133 ; 777277.7766321129 ; 4.020239337102073E8 ; 9.060921296478602E7 ; 5.0136793207352516E10 ; 47366.619999999944
134 ; 778071.907181142 ; 4.020338636623253E8 ; 9.138649074141814E7 ; 5.053881714106272E10 ; 47722.759999999944
135 ; 778070.8481632209 ; 4.0204377104255056E8 ; 9.216456264859928E7 ; 5.0940851004725044E10 ; 48078.89999999994
136 ; 778868.2848735083 ; 4.020536555654999E8 ; 9.29426334967625E7 ; 5.134289477576759E10 ; 48435.03999999994
137 ; 780772.8737931818 ; 4.020635169490591E8 ; 9.372150178163601E7 ; 5.174494843133309E10 ; 48791.17999999994
138 ; 777927.8751948744 ; 4.020733549142854E8 ; 9.45022746554292E7 ; 5.214701194828215E10 ; 49147.31999999994
139 ; 778966.5703115799 ; 4.020831691853147E8 ; 9.528020253062408E7 ; 5.2549085303196434E10 ; 49503.45999999994
140 ; 779319.027532061 ; 4.020929594892725E8 ; 9.605916910093565E7 ; 5.295116847238175E10 ; 49859.59999999994
141 ; 779608.4545837251 ; 4.021027255561893E8 ; 9.683848812846771E7 ; 5.3353261431871025E10 ; 50215.73999999994
142 ; 779678.7425299747 ; 4.0211246711891943E8 ; 9.761809658305143E7 ; 5.3755364157427216E10 ; 50571.87999999994
143 ; 779517.4379854046 ; 4.021221839130633E8 ; 9.83977753255814E7 ; 5.4157476624546135E10 ; 50928.01999999994
144 ; 779269.094613111 ; 4.0213187567689323E8 ; 9.91772927635668E7 ; 5.45595988084592E10 ; 51284.15999999994
145 ; 781943.4266683467 ; 4.021415421512827E8 ; 9.995656185817991E7 ; 5.496173068413609E10 ; 51640.29999999994
146 ; 783132.3596915375 ; 4.021511830796381E8 ; 1.0073850528484826E8 ; 5.536387222628738E10 ; 51996.43999999994
147 ; 784078.6946777402 ; 4.021607982078339E8 ; 1.0152163764453979E8 ; 5.576602340936701E10 ; 52352.579999999936
148 ; 785294.4242625263 ; 4.0217038728415036E8 ; 1.0230571633921753E8 ; 5.6168184207574844E10 ; 52708.719999999936
149 ; 788079.2182147758 ; 4.02179950059214E8 ; 1.0309101076348005E8 ; 5.657035459485899E10 ; 53064.859999999935
150 ; 788859.4935235752 ; 4.0218948628594077E8 ; 1.0387908998169483E8 ; 5.6972534544918205E10 ; 53420.999999999935
151 ; 791041.4141407254 ; 4.0219899571948093E8 ; 1.046679494752184E8 ; 5.737472403120415E10 ; 53777.139999999934
152 ; 792141.4630339477 ; 4.022084781171672E8 ; 1.0545899088935913E8 ; 5.777692302692363E10 ; 54133.27999999993
153 ; 792183.8711189895 ; 4.0221793323846424E8 ; 1.0625113235239308E8 ; 5.8179131505040794E10 ; 54489.41999999993
154 ; 795566.5599611986 ; 4.022273608449211E8 ; 1.0704331622351207E8 ; 5.858134943827926E10 ; 54845.55999999993
155 ; 799070.6829911327 ; 4.0223676070012474E8 ; 1.0783888278347327E8 ; 5.8983576799124176E10 ; 55201.69999999993
156 ; 802335.7775467306 ; 4.022461325696559E8 ; 1.086379534664644E8 ; 5.93858135598243E10 ; 55557.83999999993
157 ; 802921.0572246929 ; 4.022554762210471E8 ; 1.0944028924401113E8 ; 5.978805969239396E10 ; 55913.97999999993
158 ; 805420.0611249487 ; 4.0226479142374194E8 ; 1.1024321030123582E8 ; 6.0190315168615005E10 ; 56270.11999999993
159 ; 807393.2098106074 ; 4.0227407794905615E8 ; 1.1104863036236078E8 ; 6.059257996003875E10 ; 56626.25999999993
160 ; 810239.8450354978 ; 4.022833355701403E8 ; 1.1185602357217139E8 ; 6.099485403798781E10 ; 56982.39999999993
161 ; 810116.0102553131 ; 4.02292564061944E8 ; 1.1266626341720688E8 ; 6.1397137373557945E10 ; 57338.53999999993
162 ; 811821.1318355142 ; 4.0230176320118177E8 ; 1.1347637942746219E8 ; 6.179942993761989E10 ; 57694.67999999993
163 ; 810482.7422244841 ; 4.023109327662996E8 ; 1.1428820055929771E8 ; 6.220173170082107E10 ; 58050.81999999993
164 ; 812251.5294833275 ; 4.023200725374441E8 ; 1.150986833015222E8 ; 6.2604042633587364E10 ; 58406.95999999993
165 ; 815362.0665512169 ; 4.0232918229643154E8 ; 1.1591093483100553E8 ; 6.300636270612481E10 ; 58763.099999999926
166 ; 816750.1163849384 ; 4.023382618267189E8 ; 1.1672629689755675E8 ; 6.340869188842124E10 ; 59119.239999999925
167 ; 818888.7155633166 ; 4.023473109133762E8 ; 1.1754304701394169E8 ; 6.381103015024796E10 ; 59475.379999999925
168 ; 819643.267710388 ; 4.023563293430594E8 ; 1.18361935729505E8 ; 6.421337746116134E10 ; 59831.519999999924
169 ; 821951.6106253957 ; 4.0236531690398467E8 ; 1.1918157899721539E8 ; 6.4615733790504395E10 ; 60187.65999999992
170 ; 823861.6551378304 ; 4.0237427338590384E8 ; 1.2000353060784079E8 ; 6.501809910740838E10 ; 60543.79999999992
171 ; 824353.9129961836 ; 4.023831985800804E8 ; 1.2082739226297863E8 ; 6.542047338079428E10 ; 60899.93999999992
172 ; 826024.3156359348 ; 4.023920922792672E8 ; 1.2165174617597482E8 ; 6.582285657937436E10 ; 61256.07999999992
173 ; 827703.7016454539 ; 4.0240095427768385E8 ; 1.2247777049161075E8 ; 6.6225248671653625E10 ; 61612.21999999992
174 ; 831265.8065934912 ; 4.024097843709965E8 ; 1.233054741932562E8 ; 6.662764962593131E10 ; 61968.35999999992
175 ; 833842.8929727045 ; 4.024185823562969E8 ; 1.2413673999984969E8 ; 6.703005941030231E10 ; 62324.49999999992
176 ; 836521.1812265867 ; 4.024273480320836E8 ; 1.249705828928224E8 ; 6.743247799265861E10 ; 62680.63999999992
177 ; 835811.0886224718 ; 4.02436081198243E8 ; 1.2580710407404898E8 ; 6.783490534069069E10 ; 63036.77999999992
