CSV File for the Network on Day 20
1 - Minute m 
2 - Power Consumed at minute m 
3 - Power Produced at minute m 
4 - Energy Consumed since the beginning of the day 
5 - Energy Produced since the beginning of the day 
6 - Energy Lost since the beginning of the day 
 
0 ; 3.840407443497651E7 ; 6.317234891486013E8 ; 0.0 ; 0.0 ; 0.0
1 ; 3.8449084093735605E7 ; 6.326003649362135E8 ; 3.840407443497651E7 ; 6.317234891486013E8 ; 0.0
2 ; 3.848622584504907E7 ; 6.353311591638975E8 ; 7.685315852871212E7 ; 1.2643238540848148E9 ; 0.0
3 ; 3.853752237327401E7 ; 6.399163496544595E8 ; 1.1533938437376119E8 ; 1.8996550132487123E9 ; 0.0
4 ; 3.859399369623795E7 ; 6.463565317854795E8 ; 1.538769067470352E8 ; 2.5395713629031715E9 ; 0.0
5 ; 3.866119297216123E7 ; 6.546524349913108E8 ; 1.9247090044327316E8 ; 3.185927894688651E9 ; 0.0
6 ; 3.8750430625415675E7 ; 6.648049260004544E8 ; 2.311320934154344E8 ; 3.840580329679962E9 ; 0.0
7 ; 3.8880827467124134E7 ; 6.768149832526557E8 ; 2.6988252404085004E8 ; 4.505385255680416E9 ; 0.0
8 ; 3.906925653158759E7 ; 6.906836236870703E8 ; 3.0876335150797415E8 ; 5.182200238933072E9 ; 0.0
9 ; 3.934278073118806E7 ; 7.06411771406458E8 ; 3.4783260803956175E8 ; 5.872883862620142E9 ; 0.0
10 ; 3.97881711110866E7 ; 7.240000860288506E8 ; 3.871753887707498E8 ; 6.5792956340266E9 ; 0.0
11 ; 4.047257682287267E7 ; 7.434488084434953E8 ; 4.269635598818364E8 ; 7.30329572005545E9 ; 0.0
12 ; 4.157437989740328E7 ; 7.647576977611445E8 ; 4.6743613670470905E8 ; 8.046744528498945E9 ; 0.0
13 ; 4.2641547023908615E7 ; 7.879260943637669E8 ; 5.0901051660211235E8 ; 8.81150222626009E9 ; 0.0
14 ; 4.276615839542426E7 ; 8.129530741486026E8 ; 5.516520636260209E8 ; 9.599428320623857E9 ; 0.0
15 ; 4.281525899816763E7 ; 8.39837620176496E8 ; 5.944182220214452E8 ; 1.041238139477246E10 ; 0.0
16 ; 4.286421872764172E7 ; 8.685787540077018E8 ; 6.372334810196128E8 ; 1.1252219014948957E10 ; 0.0
17 ; 4.291474588726294E7 ; 8.991756089137186E8 ; 6.800976997472545E8 ; 1.212079776895666E10 ; 0.0
18 ; 4.296204345713224E7 ; 9.316274554601938E8 ; 7.230124456345174E8 ; 1.3019973377870378E10 ; 0.0
19 ; 4.3016309112265475E7 ; 9.659336982695467E8 ; 7.659744890916497E8 ; 1.3951600833330572E10 ; 0.0
20 ; 4.306920886831771E7 ; 1.0020938595189714E9 ; 8.089907982039151E8 ; 1.4917534531600119E10 ; 0.0
21 ; 4.312027618833952E7 ; 1.0401075586988407E9 ; 8.520600070722328E8 ; 1.5919628391119091E10 ; 0.0
22 ; 4.317066668120076E7 ; 1.0799744933408096E9 ; 8.951802832605723E8 ; 1.6959735949817932E10 ; 0.0
23 ; 4.320928377342676E7 ; 1.1216944225220938E9 ; 9.38350949941773E8 ; 1.803971044315874E10 ; 0.0
24 ; 4.32679122418902E7 ; 1.1652671534864688E9 ; 9.815602337151998E8 ; 1.9161404865680836E10 ; 0.0
25 ; 4.331853722578713E7 ; 1.2028207764886694E9 ; 1.02482814595709E9 ; 2.0326672019167305E10 ; 0.0
26 ; 4.336424268415219E7 ; 1.2028764528268163E9 ; 1.0681466831828772E9 ; 2.1529492795655975E10 ; 0.0
27 ; 4.3410388084735006E7 ; 1.2029326956739738E9 ; 1.1115109258670294E9 ; 2.273236924848279E10 ; 0.0
28 ; 4.346342995133017E7 ; 1.2029894206918607E9 ; 1.1549213139517643E9 ; 2.3935301944156765E10 ; 0.0
29 ; 4.3510718526826024E7 ; 1.203046558034901E9 ; 1.1983847439030945E9 ; 2.5138291364848625E10 ; 0.0
30 ; 4.355124388681093E7 ; 1.203104049441848E9 ; 1.2418954624299207E9 ; 2.6341337922883526E10 ; 0.0
31 ; 4.360144630276778E7 ; 1.2031618459723477E9 ; 1.2854467063167317E9 ; 2.7544441972325375E10 ; 0.0
32 ; 4.364582569222084E7 ; 1.2032199062354503E9 ; 1.3290481526194994E9 ; 2.874760381829772E10 ; 0.0
33 ; 4.36882024187902E7 ; 1.2032781949947288E9 ; 1.3726939783117204E9 ; 2.9950823724533173E10 ; 0.0
34 ; 4.373211434986548E7 ; 1.203336682063046E9 ; 1.4163821807305105E9 ; 3.11541019195279E10 ; 0.0
35 ; 4.377513325512439E7 ; 1.203395341421294E9 ; 1.460114295080376E9 ; 3.2357438601590946E10 ; 0.0
36 ; 4.381524366548031E7 ; 1.2034541505113168E9 ; 1.5038894283355002E9 ; 3.356083394301224E10 ; 0.0
37 ; 4.385116421195558E7 ; 1.2035130896651044E9 ; 1.5477046720009806E9 ; 3.476428809352356E10 ; 0.0
38 ; 4.388919986401972E7 ; 1.2035721416412406E9 ; 1.5915558362129362E9 ; 3.596780118318867E10 ; 0.0
39 ; 4.39266806453621E7 ; 1.2036312912462716E9 ; 1.6354450360769558E9 ; 3.717137332482991E10 ; 0.0
40 ; 4.3949633861296505E7 ; 1.2036905250237126E9 ; 1.679371716722318E9 ; 3.837500461607618E10 ; 0.0
41 ; 4.398664115482257E7 ; 1.2037498309972363E9 ; 1.7233213505836143E9 ; 3.957869514109989E10 ; 0.0
42 ; 4.401678074568243E7 ; 1.2038091984575114E9 ; 1.767307991738437E9 ; 4.078244497209713E10 ; 0.0
43 ; 4.40387555687796E7 ; 1.203868617784395E9 ; 1.8113247724841194E9 ; 4.198625417055464E10 ; 0.0
44 ; 4.406686559371947E7 ; 1.2039280802979124E9 ; 1.8553635280528991E9 ; 4.3190122788339035E10 ; 0.0
45 ; 4.4095416077729926E7 ; 1.2039875781327987E9 ; 1.8994303936466186E9 ; 4.439405086863695E10 ; 0.0
46 ; 4.411595942391761E7 ; 1.2040471041324146E9 ; 1.9435258097243485E9 ; 4.5598038446769745E10 ; 0.0
47 ; 4.413706889102395E7 ; 1.2041066517586749E9 ; 1.987641769148266E9 ; 4.680208555090216E10 ; 0.0
48 ; 4.41537361111705E7 ; 1.2041662150152628E9 ; 2.03177883803929E9 ; 4.8006192202660835E10 ; 0.0
49 ; 4.416505384416226E7 ; 1.204225788381927E9 ; 2.0759325741504605E9 ; 4.92103584176761E10 ; 0.0
50 ; 4.4184423808766246E7 ; 1.2042853667580502E9 ; 2.1200976279946227E9 ; 5.041458420605803E10 ; 0.0
51 ; 4.41907335274734E7 ; 1.2043449454140167E9 ; 2.164282051803389E9 ; 5.161886957281608E10 ; 0.0
52 ; 4.4207136673213094E7 ; 1.2044045199491544E9 ; 2.2084727853308625E9 ; 5.2823214518230095E10 ; 0.0
53 ; 4.422239180337405E7 ; 1.204464086255252E9 ; 2.2526799220040755E9 ; 5.402761903817925E10 ; 0.0
54 ; 4.423536270427476E7 ; 1.2045236404848077E9 ; 2.2969023138074493E9 ; 5.52320831244345E10 ; 0.0
55 ; 4.424064901670266E7 ; 1.2045831790233202E9 ; 2.341137676511724E9 ; 5.643660676491931E10 ; 0.0
56 ; 4.425407081312989E7 ; 1.204642698465034E9 ; 2.3853783255284266E9 ; 5.7641189943942635E10 ; 0.0
57 ; 4.4267057516536675E7 ; 1.2047021955916505E9 ; 2.4296323963415565E9 ; 5.884583264240767E10 ; 0.0
58 ; 4.427178396623233E7 ; 1.2047616673535984E9 ; 2.4738994538580933E9 ; 6.005053483799932E10 ; 0.0
59 ; 4.4277057341820925E7 ; 1.2048211108535047E9 ; 2.5181712378243256E9 ; 6.125529650535292E10 ; 0.0
60 ; 4.4284893324245095E7 ; 1.2048805233315825E9 ; 2.5624482951661463E9 ; 6.246011761620643E10 ; 0.0
61 ; 4.429446493764806E7 ; 1.2049399021526732E9 ; 2.6067331884903913E9 ; 6.366499813953801E10 ; 0.0
62 ; 4.430493856590072E7 ; 1.20499924479474E9 ; 2.6510276534280396E9 ; 6.486993804169068E10 ; 0.0
63 ; 4.430931795299764E7 ; 1.2050585488386173E9 ; 2.6953325919939404E9 ; 6.607493728648542E10 ; 0.0
64 ; 4.431933023351908E7 ; 1.205117811958869E9 ; 2.739641909946938E9 ; 6.7279995835324036E10 ; 0.0
65 ; 4.4324673658884495E7 ; 1.2051770319156134E9 ; 2.783961240180457E9 ; 6.8485113647282906E10 ; 0.0
66 ; 4.4328015345516875E7 ; 1.2052362065472007E9 ; 2.8282859138393416E9 ; 6.969029067919852E10 ; 0.0
67 ; 4.4328928961173646E7 ; 1.2052953337636414E9 ; 2.8726139291848583E9 ; 7.089552688574571E10 ; 0.0
68 ; 4.433380243046096E7 ; 1.2053544115406976E9 ; 2.916942858146032E9 ; 7.210082221950935E10 ; 0.0
69 ; 4.434522443103746E7 ; 1.205413437914561E9 ; 2.961276660576493E9 ; 7.330617663105005E10 ; 0.0
70 ; 4.4347396134196185E7 ; 1.2054724109770527E9 ; 3.00562188500753E9 ; 7.451159006896461E10 ; 0.0
71 ; 4.4355153392206475E7 ; 1.2055313288712826E9 ; 3.0499692811417265E9 ; 7.571706247994167E10 ; 0.0
72 ; 4.435658612745319E7 ; 1.205590189787724E9 ; 3.094324434533933E9 ; 7.692259380881294E10 ; 0.0
73 ; 4.436087507985941E7 ; 1.205648991960653E9 ; 3.1386810206613865E9 ; 7.812818399860066E10 ; 0.0
74 ; 4.436172606880278E7 ; 1.2057077336649165E9 ; 3.1830418957412457E9 ; 7.933383299056131E10 ; 0.0
75 ; 4.436522964149087E7 ; 1.205766413212995E9 ; 3.2274036218100486E9 ; 8.053954072422623E10 ; 0.0
76 ; 4.436729189692448E7 ; 1.2058250289523263E9 ; 3.2717688514515395E9 ; 8.174530713743922E10 ; 0.0
77 ; 4.4363935523554385E7 ; 1.2058835792628686E9 ; 3.316136143348464E9 ; 8.295113216639156E10 ; 0.0
78 ; 4.435618405668687E7 ; 1.205942062554874E9 ; 3.3605000788720183E9 ; 8.415701574565442E10 ; 0.0
79 ; 4.433994787321542E7 ; 1.2060004772668548E9 ; 3.404856262928705E9 ; 8.536295780820929E10 ; 0.0
80 ; 4.433102139342223E7 ; 1.2060588218637207E9 ; 3.4491962108019204E9 ; 8.656895828547615E10 ; 0.0
81 ; 4.431746755935334E7 ; 1.206117094835076E9 ; 3.4935272321953425E9 ; 8.777501710733987E10 ; 0.0
82 ; 4.429884479367885E7 ; 1.206175294693654E9 ; 3.537844699754696E9 ; 8.898113420217496E10 ; 0.0
83 ; 4.428708269974393E7 ; 1.2062334199738812E9 ; 3.5821435445483747E9 ; 9.01873094968686E10 ; 0.0
84 ; 4.427272126632001E7 ; 1.2062914692305574E9 ; 3.6264306272481184E9 ; 9.139354291684248E10 ; 0.0
85 ; 4.426085842955834E7 ; 1.2063494410376425E9 ; 3.6707033485144386E9 ; 9.259983438607304E10 ; 0.0
86 ; 4.424356580076189E7 ; 1.2064073339871364E9 ; 3.714964206943997E9 ; 9.380618382711069E10 ; 0.0
87 ; 4.422426502561085E7 ; 1.20646514668805E9 ; 3.7592077727447586E9 ; 9.501259116109782E10 ; 0.0
88 ; 4.42103779294996E7 ; 1.2065228777654514E9 ; 3.8034320377703695E9 ; 9.621905630778587E10 ; 0.0
89 ; 4.418923429520215E7 ; 1.20658052585959E9 ; 3.847642415699869E9 ; 9.742557918555133E10 ; 0.0
90 ; 4.417268111015649E7 ; 1.2066380896250818E9 ; 3.8918316499950714E9 ; 9.863215971141092E10 ; 0.0
91 ; 4.4159381031527415E7 ; 1.20669556773016E9 ; 3.936004331105228E9 ; 9.9838797801036E10 ; 0.0
92 ; 4.414161182354993E7 ; 1.2067529588559785E9 ; 3.9801637121367555E9 ; 1.0104549336876616E11 ; 0.0
93 ; 4.412493562525643E7 ; 1.2068102616959674E9 ; 4.024305323960305E9 ; 1.0225224632762213E11 ; 0.0
94 ; 4.410288261926451E7 ; 1.2068674749552357E9 ; 4.0684302595855618E9 ; 1.034590565893181E11 ; 0.0
95 ; 4.40792189059506E7 ; 1.2069245973500159E9 ; 4.1125331422048264E9 ; 1.0466592406427333E11 ; 0.0
96 ; 4.406578159103735E7 ; 1.2069816276071498E9 ; 4.156612361110777E9 ; 1.0587284866162335E11 ; 0.0
97 ; 4.404288515828884E7 ; 1.2070385644636102E9 ; 4.200678142701814E9 ; 1.070798302892305E11 ; 0.0
98 ; 4.4020808728747085E7 ; 1.2070954066660547E9 ; 4.244721027860103E9 ; 1.082868688536941E11 ; 0.0
99 ; 4.4003247228791334E7 ; 1.2071521529704132E9 ; 4.28874183658885E9 ; 1.0949396426036017E11 ; 0.0
100 ; 4.397942372990617E7 ; 1.2072088021415014E9 ; 4.332745083817641E9 ; 1.1070111641333058E11 ; 0.0
101 ; 4.395579963499282E7 ; 1.2072653529526632E9 ; 4.376724507547547E9 ; 1.1190832521547208E11 ; 0.0
102 ; 4.393085043132752E7 ; 1.207321804185435E9 ; 4.42068030718254E9 ; 1.1311559056842474E11 ; 0.0
103 ; 4.3910003702049755E7 ; 1.2073781546292346E9 ; 4.464611157613868E9 ; 1.1432291237261018E11 ; 0.0
104 ; 4.3890053482441E7 ; 1.2074344030810702E9 ; 4.508521161315918E9 ; 1.1553029052723943E11 ; 0.0
105 ; 4.3858335612322204E7 ; 1.2074905483452687E9 ; 4.552411214798359E9 ; 1.167377249303205E11 ; 0.0
106 ; 4.384585096946181E7 ; 1.2075465892332234E9 ; 4.596269550410681E9 ; 1.1794521547866577E11 ; 0.0
107 ; 4.381067481519311E7 ; 1.2076025245631554E9 ; 4.640115401380142E9 ; 1.19152762067899E11 ; 0.0
108 ; 4.3791054352989614E7 ; 1.2076583531598945E9 ; 4.683926076195335E9 ; 1.2036036459246216E11 ; 0.0
109 ; 4.3764075549069345E7 ; 1.207714073854671E9 ; 4.727717130548325E9 ; 1.2156802294562206E11 ; 0.0
110 ; 4.373721031971747E7 ; 1.2077696854849234E9 ; 4.771481206097394E9 ; 1.2277573701947673E11 ; 0.0
111 ; 4.371019403961548E7 ; 1.2078251868941174E9 ; 4.815218416417111E9 ; 1.2398350670496165E11 ; 0.0
112 ; 4.368403470135209E7 ; 1.2078805769315772E9 ; 4.858928610456727E9 ; 1.2519133189185577E11 ; 0.0
113 ; 4.365915306524742E7 ; 1.2079358544523265E9 ; 4.902612645158079E9 ; 1.2639921246878735E11 ; 0.0
114 ; 4.362798500260949E7 ; 1.2079910183169422E9 ; 4.946271798223327E9 ; 1.2760714832323969E11 ; 0.0
115 ; 4.3601294076653354E7 ; 1.208046067391414E9 ; 4.989899783225936E9 ; 1.2881513934155663E11 ; 0.0
116 ; 4.35677700612524E7 ; 1.208101000547016E9 ; 5.033501077302589E9 ; 1.3002318540894804E11 ; 0.0
117 ; 4.354775297214913E7 ; 1.2081558166601853E9 ; 5.077068847363842E9 ; 1.3123128640949506E11 ; 0.0
118 ; 4.35126670140915E7 ; 1.2082105146124082E9 ; 5.120616600335991E9 ; 1.3243944222615524E11 ; 0.0
119 ; 4.348565011552729E7 ; 1.2082650932901134E9 ; 5.164129267350082E9 ; 1.3364765274076765E11 ; 0.0
120 ; 4.345282319669155E7 ; 1.2083195515845735E9 ; 5.20761491746561E9 ; 1.3485591783405777E11 ; 0.0
121 ; 4.3418836194953844E7 ; 1.2083738883918104E9 ; 5.251067740662301E9 ; 1.3606423738564235E11 ; 0.0
122 ; 4.338963805026317E7 ; 1.2084281026125102E9 ; 5.294486576857255E9 ; 1.3727261127403416E11 ; 0.0
123 ; 4.33670362752738E7 ; 1.2084821931519394E9 ; 5.337876214907518E9 ; 1.3848103937664667E11 ; 0.0
124 ; 4.3323951924248636E7 ; 1.2085361589198694E9 ; 5.381243251182793E9 ; 1.396895215697986E11 ; 0.0
125 ; 4.329488232427648E7 ; 1.2085899988305058E9 ; 5.424567203107041E9 ; 1.4089805772871848E11 ; 0.0
126 ; 4.326575436646968E7 ; 1.2086437118024201E9 ; 5.467862085431318E9 ; 1.4210664772754898E11 ; 0.0
127 ; 4.323183543012191E7 ; 1.2086972967584891E9 ; 5.511127839797788E9 ; 1.433152914393514E11 ; 0.0
128 ; 4.319336143854117E7 ; 1.2087507526258345E9 ; 5.55435967522791E9 ; 1.445239887361099E11 ; 0.0
129 ; 4.315413325288185E7 ; 1.2088040783357697E9 ; 5.597553036666451E9 ; 1.4573273948873572E11 ; 0.0
130 ; 4.311844272832087E7 ; 1.2088572728237493E9 ; 5.640707169919333E9 ; 1.4694154356707147E11 ; 0.0
131 ; 4.3076491657521114E7 ; 1.2089103350293202E9 ; 5.683825612647655E9 ; 1.4815040083989523E11 ; 0.0
132 ; 4.302119845873467E7 ; 1.2089632638960786E9 ; 5.726902104305176E9 ; 1.4935931117492456E11 ; 0.0
133 ; 4.296971499890595E7 ; 1.2090160583716285E9 ; 5.76992330276391E9 ; 1.5056827443882065E11 ; 0.0
134 ; 4.2920569190170504E7 ; 1.2090687174075427E9 ; 5.812893017762816E9 ; 1.517772904971923E11 ; 0.0
135 ; 4.287676052699884E7 ; 1.2091212399593282E9 ; 5.855813586952987E9 ; 1.5298635921459982E11 ; 0.0
136 ; 4.282267911059396E7 ; 1.2091736249863925E9 ; 5.898690347479985E9 ; 1.5419548045455914E11 ; 0.0
137 ; 4.27744769688856E7 ; 1.2092258714520128E9 ; 5.941513026590579E9 ; 1.5540465407954553E11 ; 0.0
138 ; 4.2719272055378884E7 ; 1.2092779783233078E9 ; 5.984287503559464E9 ; 1.5661387995099756E11 ; 0.0
139 ; 4.2670023885957375E7 ; 1.2093299445712118E9 ; 6.027006775614843E9 ; 1.5782315792932086E11 ; 0.0
140 ; 4.262387230158689E7 ; 1.2093817691704495E9 ; 6.069676799500801E9 ; 1.5903248787389206E11 ; 0.0
141 ; 4.256613416965847E7 ; 1.2094334510995145E9 ; 6.112300671802388E9 ; 1.602418696430625E11 ; 0.0
142 ; 4.251545014053198E7 ; 1.2094849893406482E9 ; 6.154866805972047E9 ; 1.6145130309416202E11 ; 0.0
143 ; 4.2456623919062875E7 ; 1.2095363828798218E9 ; 6.197382256112578E9 ; 1.6266078808350266E11 ; 0.0
144 ; 4.2402554642528124E7 ; 1.2095876307067182E9 ; 6.239838880031641E9 ; 1.6387032446638248E11 ; 0.0
145 ; 4.236867058231523E7 ; 1.2096387318147166E9 ; 6.28224143467417E9 ; 1.650799120970892E11 ; 0.0
146 ; 4.232890465991017E7 ; 1.2096896852008786E9 ; 6.324610105256485E9 ; 1.6628955082890393E11 ; 0.0
147 ; 4.228939698563321E7 ; 1.209740489865935E9 ; 6.366939009916395E9 ; 1.674992405141048E11 ; 0.0
148 ; 4.226119367169221E7 ; 1.209791144814275E9 ; 6.409228406902028E9 ; 1.6870898100397073E11 ; 0.0
149 ; 4.221837781733332E7 ; 1.2098416490539346E9 ; 6.45148960057372E9 ; 1.69918772148785E11 ; 0.0
150 ; 4.217580262498229E7 ; 1.2098920015965886E9 ; 6.493707978391053E9 ; 1.7112861379783893E11 ; 0.0
151 ; 4.2142566918541685E7 ; 1.2099422014575427E9 ; 6.535883781016035E9 ; 1.7233850579943552E11 ; 0.0
152 ; 4.210394976451144E7 ; 1.2099922476557252E9 ; 6.578026347934577E9 ; 1.7354844800089307E11 ; 0.0
153 ; 4.206742351535961E7 ; 1.210042139213683E9 ; 6.620130297699088E9 ; 1.747584402485488E11 ; 0.0
154 ; 4.2024961816619806E7 ; 1.2100918751575744E9 ; 6.662197721214448E9 ; 1.7596848238776248E11 ; 0.0
155 ; 4.1982694449777916E7 ; 1.210141454517167E9 ; 6.704222683031068E9 ; 1.7717857426292004E11 ; 0.0
156 ; 4.1951894550078034E7 ; 1.2101908763258333E9 ; 6.746205377480845E9 ; 1.7838871571743723E11 ; 0.0
157 ; 4.190686679233435E7 ; 1.2102401396205482E9 ; 6.788157272030924E9 ; 1.7959890659376306E11 ; 0.0
158 ; 4.18683066620837E7 ; 1.2102892434418883E9 ; 6.830064138823258E9 ; 1.808091467333836E11 ; 0.0
159 ; 4.18343219125192E7 ; 1.2103381868340297E9 ; 6.871932445485342E9 ; 1.820194359768255E11 ; 0.0
160 ; 4.178812398034926E7 ; 1.2103869688447487E9 ; 6.9137667673978615E9 ; 1.8322977416365952E11 ; 0.0
161 ; 4.17449554461555E7 ; 1.2104355885254216E9 ; 6.955554891378211E9 ; 1.8444016113250427E11 ; 0.0
162 ; 4.171027109346935E7 ; 1.2104840449310265E9 ; 6.997299846824367E9 ; 1.856505967210297E11 ; 0.0
163 ; 4.166800057574531E7 ; 1.2105323371201432E9 ; 7.039010117917836E9 ; 1.8686108076596072E11 ; 0.0
164 ; 4.162968478068394E7 ; 1.2105804641549578E9 ; 7.080678118493582E9 ; 1.8807161310308087E11 ; 0.0
165 ; 4.158409697513108E7 ; 1.2106284251012638E9 ; 7.122307803274265E9 ; 1.8928219356723584E11 ; 0.0
166 ; 4.154769476221584E7 ; 1.2106762190284653E9 ; 7.163891900249396E9 ; 1.904928219923371E11 ; 0.0
167 ; 4.150203169621454E7 ; 1.2107238450095816E9 ; 7.205439595011612E9 ; 1.9170349821136557E11 ; 0.0
168 ; 4.146007335811162E7 ; 1.2107713021212504E9 ; 7.246941626707827E9 ; 1.9291422205637515E11 ; 0.0
169 ; 4.142089657173536E7 ; 1.2108185894437332E9 ; 7.288401700065938E9 ; 1.941249933584964E11 ; 0.0
170 ; 4.137502286282565E7 ; 1.2108657060609205E9 ; 7.329822596637673E9 ; 1.9533581194794012E11 ; 0.0
171 ; 4.133418563366811E7 ; 1.2109126510603352E9 ; 7.371197619500499E9 ; 1.9654667765400104E11 ; 0.0
172 ; 4.1293110988302425E7 ; 1.2109594235331411E9 ; 7.412531805134167E9 ; 1.9775759030506137E11 ; 0.0
173 ; 4.125299294107778E7 ; 1.2110060225741475E9 ; 7.453824916122469E9 ; 1.989685497285945E11 ; 0.0
174 ; 4.123011764599031E7 ; 1.2110524472818153E9 ; 7.495077909063547E9 ; 2.0017955575116867E11 ; 0.0
175 ; 4.119953096805043E7 ; 1.2110986967582655E9 ; 7.5363080267095375E9 ; 2.013906081984505E11 ; 0.0
176 ; 4.118015974198464E7 ; 1.2111447701092844E9 ; 7.5775075576775875E9 ; 2.0260170689520877E11 ; 0.0
177 ; 4.115169429445668E7 ; 1.211190666444332E9 ; 7.618687717419572E9 ; 2.0381285166531805E11 ; 0.0
178 ; 4.1124409526086956E7 ; 1.2112363848765492E9 ; 7.659839411714028E9 ; 2.050240423317624E11 ; 0.0
179 ; 4.1098991672720015E7 ; 1.211281924522766E9 ; 7.700963821240115E9 ; 2.0623527871663895E11 ; 0.0
180 ; 4.107709555119747E7 ; 1.2113272845035105E9 ; 7.742062812912835E9 ; 2.074465606411617E11 ; 0.0
181 ; 4.10460013540697E7 ; 1.2113724639430146E9 ; 7.783139908464032E9 ; 2.0865788792566522E11 ; 0.0
182 ; 4.102805801243683E7 ; 1.2114174619692252E9 ; 7.824185909818102E9 ; 2.0986926038960825E11 ; 0.0
183 ; 4.1000769974705756E7 ; 1.2114622777138124E9 ; 7.865213967830539E9 ; 2.1108067785157748E11 ; 0.0
184 ; 4.0972341295470074E7 ; 1.2115069103121777E9 ; 7.906214737805244E9 ; 2.122921401292913E11 ; 0.0
185 ; 4.0949296424700014E7 ; 1.2115513589034638E9 ; 7.947187079100715E9 ; 2.1350364703960345E11 ; 0.0
186 ; 4.09236346698152E7 ; 1.2115956226305637E9 ; 7.988136375525414E9 ; 2.1471519839850693E11 ; 0.0
187 ; 4.0893382811678395E7 ; 1.211639700640131E9 ; 8.02906001019523E9 ; 2.1592679402113748E11 ; 0.0
188 ; 4.087191539223966E7 ; 1.2116835920825875E9 ; 8.069953393006907E9 ; 2.1713843372177762E11 ; 0.0
189 ; 4.085152031583542E7 ; 1.2117272961121361E9 ; 8.110825308399147E9 ; 2.183501173138602E11 ; 0.0
190 ; 4.082527347637765E7 ; 1.2117708118867679E9 ; 8.151676828714982E9 ; 2.1956184460997232E11 ; 0.0
191 ; 4.079851450860518E7 ; 1.211814138568274E9 ; 8.1925021021913595E9 ; 2.207736154218591E11 ; 0.0
192 ; 4.077354522912091E7 ; 1.211857275322255E9 ; 8.233300616699965E9 ; 2.2198542956042737E11 ; 0.0
193 ; 4.07493751121565E7 ; 1.2119002213181312E9 ; 8.274074161929086E9 ; 2.2319728683574963E11 ; 0.0
194 ; 4.072616084070389E7 ; 1.211942975729154E9 ; 8.314823537041243E9 ; 2.2440918705706778E11 ; 0.0
195 ; 4.06952159264833E7 ; 1.2119855377324157E9 ; 8.355549697881947E9 ; 2.2562113003279694E11 ; 0.0
196 ; 4.066792171226675E7 ; 1.2120279065088592E9 ; 8.39624491380843E9 ; 2.2683311557052936E11 ; 0.0
