CSV File for the Network on Day 341
1 - Minute m 
2 - Power Consumed at minute m 
3 - Power Produced at minute m 
4 - Energy Consumed since the beginning of the day 
5 - Energy Produced since the beginning of the day 
6 - Energy Lost since the beginning of the day 
 
0 ; 3.8683132189662345E7 ; 6.362435931720926E8 ; 0.0 ; 0.0 ; 0.0
1 ; 3.872175293309729E7 ; 6.371544414498167E8 ; 3.8683132189662345E7 ; 6.362435931720926E8 ; 0.0
2 ; 3.876248793868527E7 ; 6.399186888781282E8 ; 7.740488512275964E7 ; 1.2733980346219091E9 ; 0.0
3 ; 3.881103185828426E7 ; 6.445363484886181E8 ; 1.1616737306144491E8 ; 1.9133167235000372E9 ; 0.0
4 ; 3.8865621293523066E7 ; 6.510074319203537E8 ; 1.5497840491972917E8 ; 2.557853071988655E9 ; 0.0
5 ; 3.893546153104093E7 ; 6.593319493688954E8 ; 1.9384402621325225E8 ; 3.208860503909009E9 ; 0.0
6 ; 3.9029847901343E7 ; 6.695099095409718E8 ; 2.3277948774429318E8 ; 3.8681924532779045E9 ; 0.0
7 ; 3.916088604984803E7 ; 6.815413196152768E8 ; 2.718093356456362E8 ; 4.537702362818876E9 ; 0.0
8 ; 3.934971049687307E7 ; 6.95426185209805E8 ; 3.109702216954842E8 ; 5.219243682434153E9 ; 0.0
9 ; 3.962851983759357E7 ; 7.111645103560696E8 ; 3.503199321923573E8 ; 5.914669867643957E9 ; 0.0
10 ; 4.006804325368141E7 ; 7.287562974804838E8 ; 3.8994845202995086E8 ; 6.625834378000027E9 ; 0.0
11 ; 4.0759367904905155E7 ; 7.482015473931068E8 ; 4.300164952836323E8 ; 7.354590675480511E9 ; 0.0
12 ; 4.185874877683278E7 ; 7.695002592838792E8 ; 4.707758631885374E8 ; 8.102792222873617E9 ; 0.0
13 ; 4.292697054761809E7 ; 7.926524307263877E8 ; 5.126346119653702E8 ; 8.872292482157495E9 ; 0.0
14 ; 4.305433583650595E7 ; 8.176580576891198E8 ; 5.555615825129883E8 ; 9.664944912883883E9 ; 0.0
15 ; 4.310094458595894E7 ; 8.445171345540805E8 ; 5.986159183494942E8 ; 1.0482602970573002E10 ; 0.0
16 ; 4.31501484503792E7 ; 8.73229654142576E8 ; 6.417168629354532E8 ; 1.1327120105127083E10 ; 0.0
17 ; 4.320132013426694E7 ; 9.037956077478775E8 ; 6.848670113858324E8 ; 1.2200349759269659E10 ; 0.0
18 ; 4.325614944368467E7 ; 9.362149851744245E8 ; 7.280683315200994E8 ; 1.3104145367017536E10 ; 0.0
19 ; 4.3307841864535734E7 ; 9.704877747831501E8 ; 7.713244809637841E8 ; 1.4040360352191961E10 ; 0.0
20 ; 4.3353813753446974E7 ; 1.0066139635424627E9 ; 8.146323228283198E8 ; 1.5010848126975111E10 ; 0.0
21 ; 4.3410754713572375E7 ; 1.0445935370843711E9 ; 8.579861365817667E8 ; 1.6017462090517574E10 ; 0.0
22 ; 4.3463751157823026E7 ; 1.0844264797651944E9 ; 9.013968912953391E8 ; 1.7062055627601946E10 ; 0.0
23 ; 4.351507799355658E7 ; 1.126112774730282E9 ; 9.448606424531622E8 ; 1.814648210736714E10 ; 0.0
24 ; 4.356793816054156E7 ; 1.169652403982136E9 ; 9.883757204467188E8 ; 1.9272594882097424E10 ; 0.0
25 ; 4.361246688406158E7 ; 1.2071735938404298E9 ; 1.0319436586072603E9 ; 2.044224728607956E10 ; 0.0
26 ; 4.366687336037253E7 ; 1.2071976112364852E9 ; 1.075556125491322E9 ; 2.164942087991999E10 ; 0.0
27 ; 4.3712319673527755E7 ; 1.2072230509373708E9 ; 1.1192229988516946E9 ; 2.2856618491156475E10 ; 0.0
28 ; 4.3764559146599695E7 ; 1.207249891102211E9 ; 1.1629353185252223E9 ; 2.4063841542093845E10 ; 0.0
29 ; 4.381661076255615E7 ; 1.2072781091177561E9 ; 1.206699877671822E9 ; 2.5271091433196056E10 ; 0.0
30 ; 4.385855737104718E7 ; 1.207307681674378E9 ; 1.2505164884343781E9 ; 2.6478369542313812E10 ; 0.0
31 ; 4.3910377091014326E7 ; 1.2073385848414507E9 ; 1.2943750458054254E9 ; 2.768567722398819E10 ; 0.0
32 ; 4.3955874901282355E7 ; 1.2073707941416655E9 ; 1.3382854228964398E9 ; 2.889301580882964E10 ; 0.0
33 ; 4.400045122012857E7 ; 1.2074042846238475E9 ; 1.382241297797722E9 ; 3.0100386602971306E10 ; 0.0
34 ; 4.4044412735826604E7 ; 1.2074390309339046E9 ; 1.4262417490178506E9 ; 3.1307790887595154E10 ; 0.0
35 ; 4.4083226908399574E7 ; 1.2074750073835704E9 ; 1.4702861617536771E9 ; 3.251522991852906E10 ; 0.0
36 ; 4.413412697110949E7 ; 1.2075121880166566E9 ; 1.5143693886620767E9 ; 3.3722704925912632E10 ; 0.0
37 ; 4.4170131349221416E7 ; 1.207550546672573E9 ; 1.558503515633186E9 ; 3.493021711392929E10 ; 0.0
38 ; 4.420413747766288E7 ; 1.2075900570469136E9 ; 1.6026736469824076E9 ; 3.613776766060187E10 ; 0.0
39 ; 4.424097393346915E7 ; 1.207630692748953E9 ; 1.6468777844600704E9 ; 3.734535771764878E10 ; 0.0
40 ; 4.427671804508743E7 ; 1.2076724273559418E9 ; 1.6911187583935394E9 ; 3.8552988410397736E10 ; 0.0
41 ; 4.430887074439311E7 ; 1.2077152344641104E9 ; 1.7353954764386268E9 ; 3.976066083775368E10 ; 0.0
42 ; 4.434272918383447E7 ; 1.207759087736352E9 ; 1.7797043471830199E9 ; 4.096837607221779E10 ; 0.0
43 ; 4.4374613170101404E7 ; 1.2078039609465575E9 ; 1.8240470763668544E9 ; 4.217613515995414E10 ; 0.0
44 ; 4.439952916878501E7 ; 1.2078498280206294E9 ; 1.8684216895369558E9 ; 4.3383939120900696E10 ; 0.0
45 ; 4.443216086877598E7 ; 1.207896663074208E9 ; 1.912821218705741E9 ; 4.4591788948921326E10 ; 0.0
46 ; 4.4452592515170746E7 ; 1.207944440447177E9 ; 1.957253379574517E9 ; 4.579968561199554E10 ; 0.0
47 ; 4.447556961999675E7 ; 1.2079931347350314E9 ; 2.0017059720896878E9 ; 4.700763005244271E10 ; 0.0
48 ; 4.449691340688355E7 ; 1.208042720817203E9 ; 2.0461815417096846E9 ; 4.821562318717774E10 ; 0.0
49 ; 4.4511182716254726E7 ; 1.2080931738824565E9 ; 2.090678455116568E9 ; 4.942366590799494E10 ; 0.0
50 ; 4.453259595778605E7 ; 1.2081444694514802E9 ; 2.1351896378328228E9 ; 5.0631759081877396E10 ; 0.0
51 ; 4.4540423748399235E7 ; 1.2081965833967986E9 ; 2.179722233790609E9 ; 5.183990355132887E10 ; 0.0
52 ; 4.4555697582748085E7 ; 1.2082494919601462E9 ; 2.224262657539008E9 ; 5.304810013472567E10 ; 0.0
53 ; 4.456959377951061E7 ; 1.2083031717674403E9 ; 2.268818355121756E9 ; 5.4256349626685814E10 ; 0.0
54 ; 4.45859688789812E7 ; 1.208357599841498E9 ; 2.3133879489012666E9 ; 5.5464652798453255E10 ; 0.0
55 ; 4.460101099082091E7 ; 1.2084127536126354E9 ; 2.3579739177802477E9 ; 5.6673010398294754E10 ; 0.0
56 ; 4.460950903642337E7 ; 1.208468610927299E9 ; 2.4025749287710686E9 ; 5.788142315190739E10 ; 0.0
57 ; 4.462565532883756E7 ; 1.208525150054862E9 ; 2.447184437807492E9 ; 5.908989176283469E10 ; 0.0
58 ; 4.46404193572053E7 ; 1.2085823496927261E9 ; 2.491810093136329E9 ; 6.029841691288955E10 ; 0.0
59 ; 4.465274506702001E7 ; 1.2086401889698606E9 ; 2.5364505124935346E9 ; 6.1506999262582275E10 ; 0.0
60 ; 4.465773863085941E7 ; 1.2086986474489112E9 ; 2.5811032575605545E9 ; 6.271563945155214E10 ; 0.0
61 ; 4.46740314742751E7 ; 1.2087577051269956E9 ; 2.625760996191414E9 ; 6.392433809900105E10 ; 0.0
62 ; 4.46807304227158E7 ; 1.2088173424353108E9 ; 2.670435027665689E9 ; 6.513309580412805E10 ; 0.0
63 ; 4.469100007593472E7 ; 1.208877540237661E9 ; 2.7151157580884047E9 ; 6.634191314656336E10 ; 0.0
64 ; 4.4704002369055435E7 ; 1.208938279828012E9 ; 2.7598067581643395E9 ; 6.7550790686801025E10 ; 0.0
65 ; 4.4716984830884315E7 ; 1.2089995429271746E9 ; 2.804510760533395E9 ; 6.875972896662904E10 ; 0.0
66 ; 4.4720256599290684E7 ; 1.2090613116787117E9 ; 2.8492277453642793E9 ; 6.996872850955621E10 ; 0.0
67 ; 4.472131260985752E7 ; 1.2091235686441555E9 ; 2.89394800196357E9 ; 7.117778982123492E10 ; 0.0
68 ; 4.4736186793524764E7 ; 1.2091862967976184E9 ; 2.9386693145734277E9 ; 7.238691338987907E10 ; 0.0
69 ; 4.474414690979678E7 ; 1.2092494795198755E9 ; 2.9834055013669524E9 ; 7.35960996866767E10 ; 0.0
70 ; 4.475692875317948E7 ; 1.209313100591987E9 ; 3.028149648276749E9 ; 7.480534916619658E10 ; 0.0
71 ; 4.475947795704068E7 ; 1.2093771441885283E9 ; 3.0729065770299287E9 ; 7.601466226678856E10 ; 0.0
72 ; 4.477131460663679E7 ; 1.2094415948704896E9 ; 3.1176660549869695E9 ; 7.722403941097708E10 ; 0.0
73 ; 4.4774316969985805E7 ; 1.2095064375778956E9 ; 3.1624373695936065E9 ; 7.843348100584756E10 ; 0.0
74 ; 4.477805156136537E7 ; 1.2095716576222024E9 ; 3.2072116865635924E9 ; 7.964298744342546E10 ; 0.0
75 ; 4.478215510034933E7 ; 1.2096372406785126E9 ; 3.251989738124958E9 ; 8.085255910104767E10 ; 0.0
76 ; 4.4789372396563E7 ; 1.2097031727776537E9 ; 3.2967718932253075E9 ; 8.206219634172618E10 ; 0.0
77 ; 4.479640776663014E7 ; 1.2097694402981582E9 ; 3.3415612656218705E9 ; 8.327189951450383E10 ; 0.0
78 ; 4.478926899712326E7 ; 1.2098360299581778E9 ; 3.3863576733885007E9 ; 8.448166895480199E10 ; 0.0
79 ; 4.4778305157562315E7 ; 1.209902928807363E9 ; 3.431146942385624E9 ; 8.569150498476016E10 ; 0.0
80 ; 4.477119615044689E7 ; 1.2099701242187417E9 ; 3.475925247543186E9 ; 8.690140791356752E10 ; 0.0
81 ; 4.47534703449771E7 ; 1.2100376038806098E9 ; 3.520696443693633E9 ; 8.811137803778625E10 ; 0.0
82 ; 4.475223080402024E7 ; 1.2101053557884684E9 ; 3.56544991403861E9 ; 8.932141564166687E10 ; 0.0
83 ; 4.473270556612602E7 ; 1.21017336823702E9 ; 3.6102021448426304E9 ; 9.053152099745534E10 ; 0.0
84 ; 4.472854709761016E7 ; 1.2102416298122423E9 ; 3.6549348504087563E9 ; 9.174169436569235E10 ; 0.0
85 ; 4.471288823478128E7 ; 1.210310129383555E9 ; 3.6996633975063663E9 ; 9.29519359955046E10 ; 0.0
86 ; 4.470306459144555E7 ; 1.2103788560960937E9 ; 3.7443762857411475E9 ; 9.416224612488815E10 ; 0.0
87 ; 4.469117254717906E7 ; 1.2104477993630996E9 ; 3.789079350332593E9 ; 9.537262498098425E10 ; 0.0
88 ; 4.468354335366759E7 ; 1.210516948858438E9 ; 3.833770522879772E9 ; 9.658307278034735E10 ; 0.0
89 ; 4.466558114386247E7 ; 1.2105862945092497E9 ; 3.87845406623344E9 ; 9.77935897292058E10 ; 0.0
90 ; 4.465182188147288E7 ; 1.2106558264887478E9 ; 3.923119647377302E9 ; 9.900417602371504E10 ; 0.0
91 ; 4.46448941636344E7 ; 1.2107255352091577E9 ; 3.967771469258775E9 ; 1.002148318502038E11 ; 0.0
92 ; 4.462287383110675E7 ; 1.210795411314812E9 ; 4.0124163634224095E9 ; 1.0142555738541295E11 ; 0.0
93 ; 4.460589157937981E7 ; 1.2108654456754E9 ; 4.057039237253516E9 ; 1.0263635279672777E11 ; 0.0
94 ; 4.4595028215042315E7 ; 1.210935629379376E9 ; 4.101645128832896E9 ; 1.0384721824240317E11 ; 0.0
95 ; 4.458110964572628E7 ; 1.2110059537275236E9 ; 4.1462401570479383E9 ; 1.0505815387178255E11 ; 0.0
96 ; 4.456840093099156E7 ; 1.2110764102266865E9 ; 4.1908212666936646E9 ; 1.0626915982551007E11 ; 0.0
97 ; 4.454742169766526E7 ; 1.211146990583656E9 ; 4.235389667624656E9 ; 1.0748023623573676E11 ; 0.0
98 ; 4.4535642260510854E7 ; 1.2112176866992202E9 ; 4.2799370893223214E9 ; 1.086913832263204E11 ; 0.0
99 ; 4.451601956278558E7 ; 1.2112884906623745E9 ; 4.324472731582832E9 ; 1.0990260091301962E11 ; 0.0
100 ; 4.449630464859017E7 ; 1.2113593947446914E9 ; 4.3689887511456175E9 ; 1.1111388940368199E11 ; 0.0
101 ; 4.448445213572411E7 ; 1.2114303913948445E9 ; 4.413485055794208E9 ; 1.1232524879842668E11 ; 0.0
102 ; 4.4464903761172526E7 ; 1.2115014732332942E9 ; 4.457969507929932E9 ; 1.1353667918982153E11 ; 0.0
103 ; 4.443923589779265E7 ; 1.211572633047122E9 ; 4.502434411691104E9 ; 1.1474818066305482E11 ; 0.0
104 ; 4.44256099033667E7 ; 1.2116438637850177E9 ; 4.546873647588897E9 ; 1.1595975329610194E11 ; 0.0
105 ; 4.440709357665741E7 ; 1.2117151585524163E9 ; 4.591299257492264E9 ; 1.1717139715988696E11 ; 0.0
106 ; 4.438740854927603E7 ; 1.21178651060678E9 ; 4.635706351068921E9 ; 1.1838311231843938E11 ; 0.0
107 ; 4.4368126980798945E7 ; 1.2118579133530216E9 ; 4.680093759618197E9 ; 1.1959489882904616E11 ; 0.0
108 ; 4.434618042962715E7 ; 1.211929360339073E9 ; 4.724461886598996E9 ; 1.2080675674239919E11 ; 0.0
109 ; 4.432655008884053E7 ; 1.2120008452515836E9 ; 4.768808067028624E9 ; 1.2201868610273825E11 ; 0.0
110 ; 4.4305881589734524E7 ; 1.2120723619117591E9 ; 4.813134617117464E9 ; 1.2323068694798984E11 ; 0.0
111 ; 4.4285519540775746E7 ; 1.2121439042713273E9 ; 4.857440498707198E9 ; 1.244427593099016E11 ; 0.0
112 ; 4.425613858464958E7 ; 1.21221546640863E9 ; 4.901726018247973E9 ; 1.2565490321417293E11 ; 0.0
113 ; 4.424288712390758E7 ; 1.2122870425248432E9 ; 4.9459821568326235E9 ; 1.2686711868058156E11 ; 0.0
114 ; 4.4224688814086E7 ; 1.212358626940314E9 ; 4.990225043956532E9 ; 1.280794057231064E11 ; 0.0
115 ; 4.418842902484812E7 ; 1.2124302140910182E9 ; 5.0344497327706175E9 ; 1.292917643500467E11 ; 0.0
116 ; 4.417694250451539E7 ; 1.2125017985251272E9 ; 5.078638161795465E9 ; 1.3050419456413773E11 ; 0.0
117 ; 4.414295846487141E7 ; 1.2125733748996925E9 ; 5.122815104299981E9 ; 1.3171669636266286E11 ; 0.0
118 ; 4.4118108369958706E7 ; 1.2126449379774318E9 ; 5.166958062764853E9 ; 1.3292926973756255E11 ; 0.0
119 ; 4.409811376459207E7 ; 1.2127164826236234E9 ; 5.211076171134811E9 ; 1.3414191467553998E11 ; 0.0
120 ; 4.40692361905445E7 ; 1.2127880038031006E9 ; 5.255174284899404E9 ; 1.353546311581636E11 ; 0.0
121 ; 4.405047938775092E7 ; 1.2128594965773435E9 ; 5.299243521089948E9 ; 1.365674191619667E11 ; 0.0
122 ; 4.4019768829917766E7 ; 1.2129309561016698E9 ; 5.343294000477698E9 ; 1.3778027865854404E11 ; 0.0
123 ; 4.399708457337156E7 ; 1.2130023776225128E9 ; 5.387313769307616E9 ; 1.3899320961464572E11 ; 0.0
124 ; 4.396594230438101E7 ; 1.2130737564747922E9 ; 5.431310853880988E9 ; 1.4020621199226825E11 ; 0.0
125 ; 4.393866183410754E7 ; 1.2131450880793724E9 ; 5.4752767961853695E9 ; 1.4141928574874304E11 ; 0.0
126 ; 4.391962389677183E7 ; 1.2132163679406009E9 ; 5.519215458019477E9 ; 1.4263243083682242E11 ; 0.0
127 ; 4.3895575926869795E7 ; 1.213287591643931E9 ; 5.563135081916248E9 ; 1.4384564720476303E11 ; 0.0
128 ; 4.3856458721448675E7 ; 1.2133587548536227E9 ; 5.607030657843118E9 ; 1.4505893479640695E11 ; 0.0
129 ; 4.382832148666948E7 ; 1.2134298533105178E9 ; 5.650887116564567E9 ; 1.462722935512606E11 ; 0.0
130 ; 4.379780675480111E7 ; 1.2135008828298912E9 ; 5.694715438051236E9 ; 1.474857234045711E11 ; 0.0
131 ; 4.3747734713408574E7 ; 1.2135718392993698E9 ; 5.738513244806037E9 ; 1.48699224287401E11 ; 0.0
132 ; 4.3709599083846286E7 ; 1.2136427186769247E9 ; 5.782260979519445E9 ; 1.4991279612670038E11 ; 0.0
133 ; 4.366573729563924E7 ; 1.2137135169889247E9 ; 5.8259705786032915E9 ; 1.511264388453773E11 ; 0.0
134 ; 4.3622261907224014E7 ; 1.2137842303282576E9 ; 5.869636315898931E9 ; 1.523401523623662E11 ; 0.0
135 ; 4.357993780697122E7 ; 1.2138548548525128E9 ; 5.913258577806154E9 ; 1.5355393659269446E11 ; 0.0
136 ; 4.353380355027886E7 ; 1.213925386782223E9 ; 5.956838515613126E9 ; 1.5476779144754697E11 ; 0.0
137 ; 4.348902880195493E7 ; 1.2139958223991644E9 ; 6.000372319163404E9 ; 1.559817168343292E11 ; 0.0
138 ; 4.3449130076694995E7 ; 1.214066158044713E9 ; 6.04386134796536E9 ; 1.5719571265672836E11 ; 0.0
139 ; 4.3401968538101494E7 ; 1.2141363901182551E9 ; 6.087310478042055E9 ; 1.5840977881477307E11 ; 0.0
140 ; 4.335389297077704E7 ; 1.2142065150756497E9 ; 6.130712446580156E9 ; 1.5962391520489133E11 ; 0.0
141 ; 4.330607495397625E7 ; 1.2142765294277403E9 ; 6.174066339550934E9 ; 1.6083812171996698E11 ; 0.0
142 ; 4.3258183563879505E7 ; 1.2143464297389188E9 ; 6.21737241450491E9 ; 1.620523982493947E11 ; 0.0
143 ; 4.321966852075469E7 ; 1.2144162126257324E9 ; 6.26063059806879E9 ; 1.6326674467913364E11 ; 0.0
144 ; 4.316593280426358E7 ; 1.2144858747555382E9 ; 6.303850266589545E9 ; 1.6448116089175937E11 ; 0.0
145 ; 4.313673430260004E7 ; 1.2145554128452034E9 ; 6.347016199393808E9 ; 1.656956467665149E11 ; 0.0
146 ; 4.3107353306425326E7 ; 1.2146248236598425E9 ; 6.390152933696408E9 ; 1.669102021793601E11 ; 0.0
147 ; 4.306942738573514E7 ; 1.214694104011602E9 ; 6.433260287002833E9 ; 1.6812482700301996E11 ; 0.0
148 ; 4.3047197975233346E7 ; 1.2147632507584794E9 ; 6.476329714388569E9 ; 1.6933952110703156E11 ; 0.0
149 ; 4.301646550714957E7 ; 1.2148322608031843E9 ; 6.519376912363802E9 ; 1.7055428435779004E11 ; 0.0
150 ; 4.298438314131574E7 ; 1.2149011310920343E9 ; 6.562393377870952E9 ; 1.7176911661859323E11 ; 0.0
151 ; 4.29448944909842E7 ; 1.214969858613886E9 ; 6.605377761012267E9 ; 1.7298401774968527E11 ; 0.0
152 ; 4.29223167209703E7 ; 1.2150384403991022E9 ; 6.648322655503251E9 ; 1.7419898760829916E11 ; 0.0
153 ; 4.288146901140938E7 ; 1.2151068735185525E9 ; 6.691244972224221E9 ; 1.7541402604869827E11 ; 0.0
154 ; 4.285226511186827E7 ; 1.2151751550826435E9 ; 6.734126441235631E9 ; 1.7662913292221683E11 ; 0.0
155 ; 4.281729476386529E7 ; 1.2152432822403822E9 ; 6.776978706347499E9 ; 1.7784430807729947E11 ; 0.0
156 ; 4.278320662331096E7 ; 1.21531125217847E9 ; 6.819796001111364E9 ; 1.7905955135953986E11 ; 0.0
157 ; 4.275577189916921E7 ; 1.2153790621204228E9 ; 6.862579207734675E9 ; 1.8027486261171832E11 ; 0.0
158 ; 4.272298903886762E7 ; 1.215446709325722E9 ; 6.905334979633844E9 ; 1.8149024167383875E11 ; 0.0
159 ; 4.269267763454153E7 ; 1.215514191088991E9 ; 6.948057968672712E9 ; 1.8270568838316446E11 ; 0.0
160 ; 4.2661759055659994E7 ; 1.215581504739198E9 ; 6.990750646307254E9 ; 1.8392120257425345E11 ; 0.0
161 ; 4.2624978223194316E7 ; 1.2156486476388845E9 ; 7.033412405362914E9 ; 1.8513678407899265E11 ; 0.0
162 ; 4.259102111732535E7 ; 1.2157156171834176E9 ; 7.076037383586108E9 ; 1.8635243272663153E11 ; 0.0
163 ; 4.256082888637366E7 ; 1.2157824108002658E9 ; 7.118628404703434E9 ; 1.8756814834381494E11 ; 0.0
164 ; 4.252167790772031E7 ; 1.215849025948299E9 ; 7.1611892335898075E9 ; 1.887839307546152E11 ; 0.0
165 ; 4.2481767576344356E7 ; 1.2159154601171079E9 ; 7.203710911497528E9 ; 1.899997797805635E11 ; 0.0
166 ; 4.245261757398322E7 ; 1.2159817108263476E9 ; 7.246192679073873E9 ; 1.912156952406806E11 ; 0.0
167 ; 4.2426453207302935E7 ; 1.2160477756250992E9 ; 7.288645296647856E9 ; 1.9243167695150696E11 ; 0.0
168 ; 4.2386731036609106E7 ; 1.2161136520912538E9 ; 7.331071749855159E9 ; 1.9364772472713205E11 ; 0.0
169 ; 4.234768450139483E7 ; 1.2161793378309112E9 ; 7.3734584808917675E9 ; 1.948638383792233E11 ; 0.0
170 ; 4.232233165833022E7 ; 1.2162448304778044E9 ; 7.415806165393163E9 ; 1.960800177170542E11 ; 0.0
171 ; 4.2280864092957824E7 ; 1.2163101276927352E9 ; 7.458128497051493E9 ; 1.97296262547532E11 ; 0.0
172 ; 4.224571755944296E7 ; 1.21637522716303E9 ; 7.50040936114445E9 ; 1.9851257267522476E11 ; 0.0
173 ; 4.2217268236159995E7 ; 1.2164401266020129E9 ; 7.542655078703893E9 ; 1.997289479023878E11 ; 0.0
174 ; 4.2192133403618686E7 ; 1.2165048237484944E9 ; 7.584872346940053E9 ; 2.009453880289898E11 ; 0.0
175 ; 4.2179373242136106E7 ; 1.2165693163662753E9 ; 7.627064480343672E9 ; 2.021618928527383E11 ; 0.0
176 ; 4.2151221021586314E7 ; 1.2166336022436666E9 ; 7.669243853585808E9 ; 2.0337846216910458E11 ; 0.0
177 ; 4.212966654772548E7 ; 1.2166976791930232E9 ; 7.711395074607394E9 ; 2.0459509577134824E11 ; 0.0
178 ; 4.2112039995755896E7 ; 1.2167615450502925E9 ; 7.75352474115512E9 ; 2.0581179345054126E11 ; 0.0
179 ; 4.20832555395234E7 ; 1.2168251976745772E9 ; 7.795636781150876E9 ; 2.0702855499559155E11 ; 0.0
180 ; 4.206712635443646E7 ; 1.2168886349477098E9 ; 7.837720036690399E9 ; 2.0824538019326614E11 ; 0.0
181 ; 4.2048438599079184E7 ; 1.2169518547738414E9 ; 7.879787163044836E9 ; 2.0946226882821387E11 ; 0.0
182 ; 4.202446400090563E7 ; 1.2170148550790417E9 ; 7.921835601643915E9 ; 2.106792206829877E11 ; 0.0
183 ; 4.2007882641625494E7 ; 1.217077633810913E9 ; 7.963860065644821E9 ; 2.1189623553806674E11 ; 0.0
184 ; 4.1985347283500746E7 ; 1.2171401889382143E9 ; 8.005867948286447E9 ; 2.1311331317187766E11 ; 0.0
185 ; 4.196067873029694E7 ; 1.2172025184504955E9 ; 8.047853295569947E9 ; 2.1433045336081586E11 ; 0.0
186 ; 4.194258608192417E7 ; 1.2172646203577461E9 ; 8.089813974300244E9 ; 2.1554765587926636E11 ; 0.0
187 ; 4.191729952479738E7 ; 1.217326492690051E9 ; 8.131756560382169E9 ; 2.167649204996241E11 ; 0.0
188 ; 4.189676464860899E7 ; 1.2173881334972591E9 ; 8.173673859906966E9 ; 2.1798224699231418E11 ; 0.0
189 ; 4.18761647053248E7 ; 1.2174495408486593E9 ; 8.215570624555575E9 ; 2.1919963512581143E11 ; 0.0
190 ; 4.1854620689070486E7 ; 1.2175107128326678E9 ; 8.2574467892609005E9 ; 2.204170846666601E11 ; 0.0
191 ; 4.182769712763004E7 ; 1.2175716475565255E9 ; 8.299301409949971E9 ; 2.2163459537949277E11 ; 0.0
192 ; 4.1812415539601564E7 ; 1.2176323431460013E9 ; 8.341129107077601E9 ; 2.228521670270493E11 ; 0.0
193 ; 4.1793873901864894E7 ; 1.2176927977451077E9 ; 8.382941522617203E9 ; 2.2406979937019528E11 ; 0.0
194 ; 4.1771731323207244E7 ; 1.217753009515822E9 ; 8.424735396519068E9 ; 2.252874921679404E11 ; 0.0
195 ; 4.1747807472900525E7 ; 1.2178129766378164E9 ; 8.466507127842275E9 ; 2.265052451774562E11 ; 0.0
196 ; 4.172543749377808E7 ; 1.2178726973081994E9 ; 8.508254935315175E9 ; 2.2772305815409402E11 ; 0.0
