CSV File for the Network on Day 25
1 - Minute m 
2 - Power Consumed at minute m 
3 - Power Produced at minute m 
4 - Energy Consumed since the beginning of the day 
5 - Energy Produced since the beginning of the day 
6 - Energy Lost since the beginning of the day 
 
0 ; 3.83965165998043E7 ; 6.318157816000634E8 ; 0.0 ; 0.0 ; 0.0
1 ; 3.8438611311838895E7 ; 6.326980113454922E8 ; 3.83965165998043E7 ; 6.318157816000634E8 ; 0.0
2 ; 3.848335785563842E7 ; 6.35434564128953E8 ; 7.683512791164319E7 ; 1.2645137929455557E9 ; 0.0
3 ; 3.8530490071073465E7 ; 6.400258653223374E8 ; 1.1531848576728162E8 ; 1.8999483570745087E9 ; 0.0
4 ; 3.858460566673E7 ; 6.464724012682072E8 ; 1.538489758383551E8 ; 2.539974222396846E9 ; 0.0
5 ; 3.865786195560308E7 ; 6.547747136099133E8 ; 1.924335815050851E8 ; 3.186446623665053E9 ; 0.0
6 ; 3.8746446399769515E7 ; 6.649333830299449E8 ; 2.3109144346068817E8 ; 3.8412213372749662E9 ; 0.0
7 ; 3.8873136053449556E7 ; 6.769489988967948E8 ; 2.6983788986045766E8 ; 4.506154720304911E9 ; 0.0
8 ; 3.9059926573528886E7 ; 6.90822113599062E8 ; 3.0871102591390723E8 ; 5.183103719201706E9 ; 0.0
9 ; 3.9343341045620546E7 ; 7.065531852514453E8 ; 3.477709524874361E8 ; 5.873925832800768E9 ; 0.0
10 ; 3.976914143268474E7 ; 7.241425190277786E8 ; 3.871142935330567E8 ; 6.580479018052214E9 ; 0.0
11 ; 4.046998640947776E7 ; 7.435902222884823E8 ; 4.268834349657414E8 ; 7.304621537079992E9 ; 0.0
12 ; 4.157839840021198E7 ; 7.648961876731362E8 ; 4.6735342137521917E8 ; 8.048211759368475E9 ; 0.0
13 ; 4.263755803320141E7 ; 7.880601100079057E8 ; 5.0893181977543116E8 ; 8.81310794704161E9 ; 0.0
14 ; 4.276255968613208E7 ; 8.13081531178093E8 ; 5.515693778086326E8 ; 9.601168057049517E9 ; 0.0
15 ; 4.28151991879582E7 ; 8.399598987950985E8 ; 5.943319374947647E8 ; 1.041424958822761E10 ; 0.0
16 ; 4.286423427519994E7 ; 8.686946234904295E8 ; 6.371471366827229E8 ; 1.1254209487022709E10 ; 0.0
17 ; 4.2914648628289945E7 ; 8.992851245815967E8 ; 6.800113709579228E8 ; 1.2122904110513138E10 ; 0.0
18 ; 4.2964429127504066E7 ; 9.317308604252493E8 ; 7.229260195862128E8 ; 1.3022189235094734E10 ; 0.0
19 ; 4.301549874915588E7 ; 9.660313446788255E8 ; 7.658904487137169E8 ; 1.3953920095519983E10 ; 0.0
20 ; 4.306379130685817E7 ; 1.0021861519704336E9 ; 8.089059474628727E8 ; 1.4919951440198809E10 ; 0.0
21 ; 4.311270320530635E7 ; 1.0401949167558887E9 ; 8.519697387697309E8 ; 1.5922137592169243E10 ; 0.0
22 ; 4.316632196116392E7 ; 1.08005732843471E9 ; 8.950824419750373E8 ; 1.696233250892513E10 ; 0.0
23 ; 4.321320745962774E7 ; 1.1217731248475237E9 ; 9.382487639362012E8 ; 1.804238983735984E10 ; 0.0
24 ; 4.3266473438331455E7 ; 1.165342085451605E9 ; 9.81461971395829E8 ; 1.9164162962207363E10 ; 0.0
25 ; 4.331805448181926E7 ; 1.2028922702652168E9 ; 1.0247284448341604E9 ; 2.032950504765897E10 ; 0.0
26 ; 4.336891031649409E7 ; 1.2029448103439941E9 ; 1.0680464993159797E9 ; 2.1532397317924187E10 ; 0.0
27 ; 4.341060521421474E7 ; 1.2029981899825163E9 ; 1.1114154096324737E9 ; 2.273534212826818E10 ; 0.0
28 ; 4.346560931968378E7 ; 1.2030522980233488E9 ; 1.1548260148466885E9 ; 2.3938340318250698E10 ; 0.0
29 ; 4.35141879827819E7 ; 1.20310704014538E9 ; 1.1982916241663723E9 ; 2.5141392616274048E10 ; 0.0
30 ; 4.3561263730883785E7 ; 1.2031623359981384E9 ; 1.2418058121491542E9 ; 2.6344499656419426E10 ; 0.0
31 ; 4.3608270609227166E7 ; 1.203218116846076E9 ; 1.285367075880038E9 ; 2.7547661992417564E10 ; 0.0
32 ; 4.364779377336029E7 ; 1.2032743236355624E9 ; 1.3289753464892652E9 ; 2.875088010926364E10 ; 0.0
33 ; 4.368549669604337E7 ; 1.2033309054088612E9 ; 1.3726231402626255E9 ; 2.9954154432899204E10 ; 0.0
34 ; 4.3732353636989176E7 ; 1.2033878180013273E9 ; 1.4163086369586687E9 ; 3.1157485338308067E10 ; 0.0
35 ; 4.3775034549725525E7 ; 1.203445022969095E9 ; 1.4600409905956578E9 ; 3.2360873156309395E10 ; 0.0
36 ; 4.3817953274559505E7 ; 1.2035024867041864E9 ; 1.5038160251453834E9 ; 3.356431817927849E10 ; 0.0
37 ; 4.3852630495446265E7 ; 1.2035601797020733E9 ; 1.5476339784199429E9 ; 3.476782066598267E10 ; 0.0
38 ; 4.388471886123267E7 ; 1.203618075953432E9 ; 1.591486608915389E9 ; 3.5971380845684746E10 ; 0.0
39 ; 4.3924132553098336E7 ; 1.2036761524372742E9 ; 1.6353713277766218E9 ; 3.7174998921638176E10 ; 0.0
40 ; 4.395805719649428E7 ; 1.2037343886970487E9 ; 1.6792954603297203E9 ; 3.837867507407545E10 ; 0.0
41 ; 4.398861178200903E7 ; 1.203792766484854E9 ; 1.7232535175262146E9 ; 3.95824094627725E10 ; 0.0
42 ; 4.4017540840462536E7 ; 1.203851269461728E9 ; 1.7672421293082237E9 ; 4.0786202229257355E10 ; 0.0
43 ; 4.404395871233024E7 ; 1.2039098829442768E9 ; 1.8112596701486862E9 ; 4.1990053498719086E10 ; 0.0
44 ; 4.4071205886624984E7 ; 1.2039685936897104E9 ; 1.8553036288610165E9 ; 4.319396338166336E10 ; 0.0
45 ; 4.4091915604494974E7 ; 1.2040273897128341E9 ; 1.8993748347476416E9 ; 4.439793197535307E10 ; 0.0
46 ; 4.4115239255708724E7 ; 1.2040862601297088E9 ; 1.9434667503521366E9 ; 4.560195936506591E10 ; 0.0
47 ; 4.4139084734921366E7 ; 1.2041451950236568E9 ; 1.9875819896078453E9 ; 4.680604562519562E10 ; 0.0
48 ; 4.415521700464238E7 ; 1.2042041853300395E9 ; 2.0317210743427668E9 ; 4.801019082021928E10 ; 0.0
49 ; 4.4172588516695656E7 ; 1.204263222736871E9 ; 2.0758762913474092E9 ; 4.921439500554932E10 ; 0.0
50 ; 4.418287266048368E7 ; 1.20432229959883E9 ; 2.120048879864105E9 ; 5.041865822828619E10 ; 0.0
51 ; 4.419515536529013E7 ; 1.204381408862639E9 ; 2.1642317525245886E9 ; 5.162298052788502E10 ; 0.0
52 ; 4.421032934804972E7 ; 1.2044405440021272E9 ; 2.2084269078898787E9 ; 5.282736193674766E10 ; 0.0
53 ; 4.422309827315941E7 ; 1.2044996989615595E9 ; 2.2526372372379284E9 ; 5.403180248074979E10 ; 0.0
54 ; 4.4231088950542614E7 ; 1.2045588681060522E9 ; 2.296860335511088E9 ; 5.523630217971135E10 ; 0.0
55 ; 4.424150420549415E7 ; 1.2046180461780684E9 ; 2.3410914244616303E9 ; 5.64408610478174E10 ; 0.0
56 ; 4.425186864831182E7 ; 1.2046772282591596E9 ; 2.3853329286671243E9 ; 5.764547909399547E10 ; 0.0
57 ; 4.425997073158107E7 ; 1.2047364097362337E9 ; 2.429584797315436E9 ; 5.885015632225463E10 ; 0.0
58 ; 4.427311535939939E7 ; 1.204795586271746E9 ; 2.473844768047017E9 ; 6.005489273199087E10 ; 0.0
59 ; 4.4281044365057155E7 ; 1.2048547537772965E9 ; 2.5181178834064164E9 ; 6.125968831826261E10 ; 0.0
60 ; 4.429224451823684E7 ; 1.2049139083901944E9 ; 2.5623989277714734E9 ; 6.246454307203991E10 ; 0.0
61 ; 4.429974623657181E7 ; 1.2049730464526072E9 ; 2.60669117228971E9 ; 6.366945698043011E10 ; 0.0
62 ; 4.430721259542389E7 ; 1.2050321644929776E9 ; 2.650990918526282E9 ; 6.487443002688271E10 ; 0.0
63 ; 4.431211775426327E7 ; 1.2050912592094235E9 ; 2.6952981311217055E9 ; 6.6079462191375694E10 ; 0.0
64 ; 4.432376058466114E7 ; 1.2051503274548836E9 ; 2.739610248875969E9 ; 6.728455345058512E10 ; 0.0
65 ; 4.4327078634753436E7 ; 1.2052093662237978E9 ; 2.78393400946063E9 ; 6.848970377804001E10 ; 0.0
66 ; 4.433275717687133E7 ; 1.2052683726401446E9 ; 2.828261088095383E9 ; 6.969491314426381E10 ; 0.0
67 ; 4.433868430934221E7 ; 1.2053273439466765E9 ; 2.8725938452722545E9 ; 7.090018151690396E10 ; 0.0
68 ; 4.434374339463979E7 ; 1.2053862774952188E9 ; 2.916932529581597E9 ; 7.210550886085063E10 ; 0.0
69 ; 4.435482015737958E7 ; 1.2054451707379098E9 ; 2.961276272976237E9 ; 7.331089513834586E10 ; 0.0
70 ; 4.435002782740205E7 ; 1.2055040212192817E9 ; 3.0056310931336164E9 ; 7.451634030908377E10 ; 0.0
71 ; 4.435446059921914E7 ; 1.205562826569086E9 ; 3.0499811209610186E9 ; 7.572184433030305E10 ; 0.0
72 ; 4.435889845425438E7 ; 1.20562158449579E9 ; 3.094335581560238E9 ; 7.692740715687215E10 ; 0.0
73 ; 4.435991905803798E7 ; 1.2056802927806644E9 ; 3.138694480014492E9 ; 7.813302874136794E10 ; 0.0
74 ; 4.436252484492595E7 ; 1.2057389492724104E9 ; 3.18305439907253E9 ; 7.93387090341486E10 ; 0.0
75 ; 4.436925291148576E7 ; 1.2057975518822625E9 ; 3.2274169239174557E9 ; 8.054444798342102E10 ; 0.0
76 ; 4.4365331750041634E7 ; 1.205856098579523E9 ; 3.2717861768289413E9 ; 8.175024553530328E10 ; 0.0
77 ; 4.436686918815562E7 ; 1.205914587387484E9 ; 3.316151508578983E9 ; 8.295610163388281E10 ; 0.0
78 ; 4.4356336613005765E7 ; 1.2059730163796985E9 ; 3.3605183777671385E9 ; 8.41620162212703E10 ; 0.0
79 ; 4.4349170799567856E7 ; 1.2060313836765647E9 ; 3.404874714380144E9 ; 8.536798923765E10 ; 0.0
80 ; 4.433321441139542E7 ; 1.2060896874421992E9 ; 3.449223885179712E9 ; 8.657402062132655E10 ; 0.0
81 ; 4.431740517221398E7 ; 1.2061479258815646E9 ; 3.4935570995911074E9 ; 8.778011030876875E10 ; 0.0
82 ; 4.4296200772876345E7 ; 1.206206097237831E9 ; 3.5378745047633214E9 ; 8.898625823465031E10 ; 0.0
83 ; 4.429342080015234E7 ; 1.2062641997899508E9 ; 3.5821707055361977E9 ; 9.019246433188815E10 ; 0.0
84 ; 4.428086416355969E7 ; 1.206322231850424E9 ; 3.62646412633635E9 ; 9.13987285316781E10 ; 0.0
85 ; 4.426135747657062E7 ; 1.2063801917632425E9 ; 3.67074499049991E9 ; 9.260505076352852E10 ; 0.0
86 ; 4.4246090641401164E7 ; 1.2064380779019892E9 ; 3.7150063479764805E9 ; 9.381143095529176E10 ; 0.0
87 ; 4.4232775749285504E7 ; 1.2064958886680856E9 ; 3.759252438617882E9 ; 9.501786903319376E10 ; 0.0
88 ; 4.421025229048189E7 ; 1.2065536224891725E9 ; 3.8034852143671675E9 ; 9.622436492186185E10 ; 0.0
89 ; 4.419101179663025E7 ; 1.2066112778176093E9 ; 3.8476954666576495E9 ; 9.743091854435101E10 ; 0.0
90 ; 4.417553758951786E7 ; 1.2066688531290882E9 ; 3.89188647845428E9 ; 9.863752982216862E10 ; 0.0
91 ; 4.4162536503414504E7 ; 1.2067263469213474E9 ; 3.936062016043798E9 ; 9.984419867529771E10 ; 0.0
92 ; 4.4141212248138145E7 ; 1.2067837577129786E9 ; 3.9802245525472126E9 ; 1.0105092502221906E11 ; 0.0
93 ; 4.412853065525706E7 ; 1.2068410840423198E9 ; 4.0243657647953506E9 ; 1.0225770877993204E11 ; 0.0
94 ; 4.410736305533353E7 ; 1.2068983244664276E9 ; 4.068494295450608E9 ; 1.0346454986397435E11 ; 0.0
95 ; 4.4085630957718894E7 ; 1.2069554775601206E9 ; 4.1126016585059414E9 ; 1.0467144818844078E11 ; 0.0
96 ; 4.406548205767167E7 ; 1.2070125419150915E9 ; 4.1566872894636602E9 ; 1.058784036660009E11 ; 0.0
97 ; 4.404266018030998E7 ; 1.2070695161390777E9 ; 4.200752771521332E9 ; 1.0708541620791599E11 ; 0.0
98 ; 4.402556709958325E7 ; 1.207126398855091E9 ; 4.2447954317016416E9 ; 1.0829248572405507E11 ; 0.0
99 ; 4.399891831243269E7 ; 1.2071831887006989E9 ; 4.2888209988012247E9 ; 1.0949961212291016E11 ; 0.0
100 ; 4.398028292376252E7 ; 1.2072398843273535E9 ; 4.332819917113657E9 ; 1.1070679531161086E11 ; 0.0
101 ; 4.395133224883834E7 ; 1.207296484399766E9 ; 4.376800200037419E9 ; 1.119140351959382E11 ; 0.0
102 ; 4.393560062735705E7 ; 1.2073529875953212E9 ; 4.420751532286258E9 ; 1.1312133168033797E11 ; 0.0
103 ; 4.390650008711031E7 ; 1.2074093926035326E9 ; 4.464687132913615E9 ; 1.1432868466793329E11 ; 0.0
104 ; 4.389114271273192E7 ; 1.2074656981255307E9 ; 4.508593633000726E9 ; 1.1553609406053682E11 ; 0.0
105 ; 4.386275977274169E7 ; 1.2075219028735852E9 ; 4.552484775713458E9 ; 1.1674355975866235E11 ; 0.0
106 ; 4.38364542511474E7 ; 1.207578005570658E9 ; 4.596347535486199E9 ; 1.1795108166153593E11 ; 0.0
107 ; 4.3811871445973784E7 ; 1.2076340049499836E9 ; 4.640183989737347E9 ; 1.191586596671066E11 ; 0.0
108 ; 4.378395537223823E7 ; 1.207689899754678E9 ; 4.68399586118332E9 ; 1.2036629367205658E11 ; 0.0
109 ; 4.3762067941226736E7 ; 1.2077456887373695E9 ; 4.727779816555558E9 ; 1.2157398357181126E11 ; 0.0
110 ; 4.3735410369636744E7 ; 1.207801370659854E9 ; 4.771541884496785E9 ; 1.2278172926054863E11 ; 0.0
111 ; 4.3710316190691136E7 ; 1.2078569442927716E9 ; 4.815277294866422E9 ; 1.2398953063120848E11 ; 0.0
112 ; 4.368525952167999E7 ; 1.2079124084153028E9 ; 4.858987611057113E9 ; 1.2519738757550125E11 ; 0.0
113 ; 4.365230141290467E7 ; 1.207967761814883E9 ; 4.902672870578793E9 ; 1.2640529998391655E11 ; 0.0
114 ; 4.362634093118874E7 ; 1.2080230032869349E9 ; 4.946325171991697E9 ; 1.2761326774573143E11 ; 0.0
115 ; 4.3598783073308185E7 ; 1.208078131634616E9 ; 4.989951512922886E9 ; 1.2882129074901837E11 ; 0.0
116 ; 4.356940991669471E7 ; 1.2081331456685834E9 ; 5.033550295996194E9 ; 1.3002936888065298E11 ; 0.0
117 ; 4.3543355777938634E7 ; 1.20818804420677E9 ; 5.077119705912889E9 ; 1.3123750202632156E11 ; 0.0
118 ; 4.351261859081812E7 ; 1.2082428260741754E9 ; 5.120663061690827E9 ; 1.3244569007052834E11 ; 0.0
119 ; 4.348172903975891E7 ; 1.2082974901026707E9 ; 5.164175680281646E9 ; 1.3365393289660251E11 ; 0.0
120 ; 4.344845776023327E7 ; 1.2083520351308103E9 ; 5.207657409321404E9 ; 1.3486223038670518E11 ; 0.0
121 ; 4.34190093392858E7 ; 1.2084064600036612E9 ; 5.251105867081637E9 ; 1.36070582421836E11 ; 0.0
122 ; 4.33850251747822E7 ; 1.2084607635726361E9 ; 5.294524876420923E9 ; 1.3727898888183966E11 ; 0.0
123 ; 4.3358709605934545E7 ; 1.208514944695341E9 ; 5.337909901595705E9 ; 1.384874496454123E11 ; 0.0
124 ; 4.332351174471221E7 ; 1.2085690022354276E9 ; 5.381268611201639E9 ; 1.3969596459010764E11 ; 0.0
125 ; 4.328718664512802E7 ; 1.208622935062458E9 ; 5.424592122946351E9 ; 1.4090453359234305E11 ; 0.0
126 ; 4.3256701291347384E7 ; 1.208676742051776E9 ; 5.467879309591479E9 ; 1.4211315652740552E11 ; 0.0
127 ; 4.322350065742499E7 ; 1.2087304220843835E9 ; 5.511136010882827E9 ; 1.433218332694573E11 ; 0.0
128 ; 4.318647726311285E7 ; 1.2087839740468283E9 ; 5.554359511540252E9 ; 1.445305636915417E11 ; 0.0
129 ; 4.3154099507532544E7 ; 1.208837396831095E9 ; 5.597545988803365E9 ; 1.457393476655885E11 ; 0.0
130 ; 4.311087233573023E7 ; 1.2088906893345032E9 ; 5.640700088310897E9 ; 1.469481850624196E11 ; 0.0
131 ; 4.3061765760041386E7 ; 1.2089438504596133E9 ; 5.683810960646627E9 ; 1.481570757517541E11 ; 0.0
132 ; 4.301223987436813E7 ; 1.2089968791141348E9 ; 5.726872726406669E9 ; 1.493660196022137E11 ; 0.0
133 ; 4.296582279103197E7 ; 1.2090497742108421E9 ; 5.769884966281036E9 ; 1.5057501648132785E11 ; 0.0
134 ; 4.291065393402125E7 ; 1.2091025346674945E9 ; 5.812850789072068E9 ; 1.517840662555387E11 ; 0.0
135 ; 4.286681035616803E7 ; 1.2091551594067607E9 ; 5.855761443006089E9 ; 1.5299316879020618E11 ; 0.0
136 ; 4.281797544050365E7 ; 1.209207647356148E9 ; 5.898628253362257E9 ; 1.5420232394961295E11 ; 0.0
137 ; 4.276194164393745E7 ; 1.209259997447936E9 ; 5.941446228802761E9 ; 1.554115315969691E11 ; 0.0
138 ; 4.27158000698436E7 ; 1.209312208619113E9 ; 5.984208170446698E9 ; 1.5662079159441702E11 ; 0.0
139 ; 4.266047320660706E7 ; 1.209364279811318E9 ; 6.0269239705165415E9 ; 1.5783010380303613E11 ; 0.0
140 ; 4.260379892042702E7 ; 1.2094162099707832E9 ; 6.069584443723148E9 ; 1.5903946808284744E11 ; 0.0
141 ; 4.2555420671394795E7 ; 1.2094679980482852E9 ; 6.112188242643576E9 ; 1.6024888429281824E11 ; 0.0
142 ; 4.25020901900382E7 ; 1.2095196429990923E9 ; 6.15474366331497E9 ; 1.6145835229086652E11 ; 0.0
143 ; 4.244697978413436E7 ; 1.2095711437829201E9 ; 6.197245753505008E9 ; 1.626678719338656E11 ; 0.0
144 ; 4.239491270509385E7 ; 1.2096224993638887E9 ; 6.239692733289142E9 ; 1.6387744307764853E11 ; 0.0
145 ; 4.235760959760241E7 ; 1.2096737087104816E9 ; 6.282087645994235E9 ; 1.6508706557701242E11 ; 0.0
146 ; 4.2318123798062496E7 ; 1.2097247707955067E9 ; 6.324445255591838E9 ; 1.662967392857229E11 ; 0.0
147 ; 4.2282689504424274E7 ; 1.2097756845960627E9 ; 6.3667633793899E9 ; 1.675064640565184E11 ; 0.0
148 ; 4.2239763413113184E7 ; 1.2098264490935047E9 ; 6.409046068894324E9 ; 1.6871623974111447E11 ; 0.0
149 ; 4.2203153300883405E7 ; 1.209877063273412E9 ; 6.451285832307438E9 ; 1.6992606619020798E11 ; 0.0
150 ; 4.216893720224224E7 ; 1.2099275261255608E9 ; 6.493488985608321E9 ; 1.7113594325348138E11 ; 0.0
151 ; 4.21254113715034E7 ; 1.209977836643896E9 ; 6.535657922810563E9 ; 1.7234587077960693E11 ; 0.0
152 ; 4.20929318697508E7 ; 1.2100279938265061E9 ; 6.577783334182067E9 ; 1.7355584861625082E11 ; 0.0
153 ; 4.204913234281226E7 ; 1.2100779966756003E9 ; 6.619876266051818E9 ; 1.7476587661007733E11 ; 0.0
154 ; 4.201027635985615E7 ; 1.210127844197485E9 ; 6.66192539839463E9 ; 1.7597595460675293E11 ; 0.0
155 ; 4.197314887342447E7 ; 1.210177535402546E9 ; 6.703935674754487E9 ; 1.771860824509504E11 ; 0.0
156 ; 4.193081310204652E7 ; 1.2102270693052263E9 ; 6.745908823627912E9 ; 1.7839625998635297E11 ; 0.0
157 ; 4.18987776169066E7 ; 1.210276444924013E9 ; 6.787839636729959E9 ; 1.796064870556582E11 ; 0.0
158 ; 4.185121164399949E7 ; 1.2103256612814174E9 ; 6.829738414346865E9 ; 1.808167635005822E11 ; 0.0
159 ; 4.1813720068751395E7 ; 1.2103747174039626E9 ; 6.871589625990864E9 ; 1.8202708916186362E11 ; 0.0
160 ; 4.176799418242261E7 ; 1.21042361232217E9 ; 6.913403346059615E9 ; 1.8323746387926758E11 ; 0.0
161 ; 4.172565492923553E7 ; 1.2104723450705462E9 ; 6.955171340242038E9 ; 1.8444788749158975E11 ; 0.0
162 ; 4.168837430288485E7 ; 1.2105209146875718E9 ; 6.996896995171273E9 ; 1.856583598366603E11 ; 0.0
163 ; 4.164550223828486E7 ; 1.2105693202156925E9 ; 7.038585369474158E9 ; 1.8686888075134787E11 ; 0.0
164 ; 4.1607197458690025E7 ; 1.210617560701309E9 ; 7.080230871712443E9 ; 1.8807945007156357E11 ; 0.0
165 ; 4.155881043685238E7 ; 1.2106656351947694E9 ; 7.121838069171133E9 ; 1.8929006763226486E11 ; 0.0
166 ; 4.1527069972521484E7 ; 1.2107135427503617E9 ; 7.1633968796079855E9 ; 1.9050073326745963E11 ; 0.0
167 ; 4.147781817555792E7 ; 1.210761282426308E9 ; 7.204923949580507E9 ; 1.9171144681021E11 ; 0.0
168 ; 4.144052066957365E7 ; 1.2108088532847586E9 ; 7.246401767756065E9 ; 1.929222080926363E11 ; 0.0
169 ; 4.140255709016292E7 ; 1.2108562543917875E9 ; 7.287842288425639E9 ; 1.9413301694592105E11 ; 0.0
170 ; 4.135297501640356E7 ; 1.2109034848173888E9 ; 7.329244845515802E9 ; 1.9534387320031284E11 ; 0.0
171 ; 4.1314838462996826E7 ; 1.2109505436354733E9 ; 7.370597820532206E9 ; 1.9655477668513022E11 ; 0.0
172 ; 4.126769607438763E7 ; 1.2109974299238648E9 ; 7.411912658995202E9 ; 1.977657272287657E11 ; 0.0
173 ; 4.122855141650732E7 ; 1.2110441427643018E9 ; 7.45318035506959E9 ; 1.9897672465868954E11 ; 0.0
174 ; 4.119854083961881E7 ; 1.2110906812424319E9 ; 7.494408906486097E9 ; 2.0018776880145386E11 ; 0.0
175 ; 4.118466434819725E7 ; 1.211137044447814E9 ; 7.535607447325716E9 ; 2.013988594826963E11 ; 0.0
176 ; 4.115506564695396E7 ; 1.2111832314739175E9 ; 7.576792111673913E9 ; 2.026099965271441E11 ; 0.0
177 ; 4.112582812764558E7 ; 1.2112292414181235E9 ; 7.617947177320867E9 ; 2.03821179758618E11 ; 0.0
178 ; 4.109805955083671E7 ; 1.2112750733817236E9 ; 7.659073005448512E9 ; 2.0503240900003613E11 ; 0.0
179 ; 4.107431893330005E7 ; 1.211320726469925E9 ; 7.700171064999349E9 ; 2.0624368407341785E11 ; 0.0
180 ; 4.1050514545721516E7 ; 1.2113661997918487E9 ; 7.741245383932649E9 ; 2.0745500479988776E11 ; 0.0
181 ; 4.10275393553051E7 ; 1.2114114924605343E9 ; 7.78229589847837E9 ; 2.086663709996796E11 ; 0.0
182 ; 4.100428482505274E7 ; 1.2114566035929427E9 ; 7.823323437833674E9 ; 2.0987778249214014E11 ; 0.0
183 ; 4.097811063326767E7 ; 1.2115015323099587E9 ; 7.864327722658728E9 ; 2.110892390957331E11 ; 0.0
184 ; 4.0943649897648826E7 ; 1.2115462777363946E9 ; 7.905305833291995E9 ; 2.1230074062804306E11 ; 0.0
185 ; 4.0928616571230344E7 ; 1.2115908390009947E9 ; 7.946249483189644E9 ; 2.1351228690577945E11 ; 0.0
186 ; 4.089655341857292E7 ; 1.211635215236439E9 ; 7.987178099760874E9 ; 2.1472387774478046E11 ; 0.0
187 ; 4.086812566536536E7 ; 1.2116794055793495E9 ; 8.028074653179447E9 ; 2.159355129600169E11 ; 0.0
188 ; 4.0848779837543175E7 ; 1.2117234091702929E9 ; 8.068942778844812E9 ; 2.1714719236559625E11 ; 0.0
189 ; 4.0823392439208865E7 ; 1.2117672251537876E9 ; 8.109791558682356E9 ; 2.1835891577476654E11 ; 0.0
190 ; 4.0798249020351164E7 ; 1.2118108526783087E9 ; 8.150614951121565E9 ; 2.1957068299992032E11 ; 0.0
191 ; 4.077208487382299E7 ; 1.2118542908962946E9 ; 8.191413200141916E9 ; 2.2078249385259863E11 ; 0.0
192 ; 4.0746947067289524E7 ; 1.2118975389641511E9 ; 8.232185285015739E9 ; 2.2199434814349493E11 ; 0.0
193 ; 4.0721999910754986E7 ; 1.2119405960422611E9 ; 8.272932232083029E9 ; 2.2320624568245908E11 ; 0.0
194 ; 4.069117866475423E7 ; 1.2119834612949882E9 ; 8.313654231993784E9 ; 2.2441818627850134E11 ; 0.0
195 ; 4.0670768189140186E7 ; 1.2120261338906846E9 ; 8.354345410658538E9 ; 2.2563016973979633E11 ; 0.0
196 ; 4.0644525360118665E7 ; 1.212068613001699E9 ; 8.395016178847678E9 ; 2.26842195873687E11 ; 0.0
