CSV File for the Network on Day 248
1 - Minute m 
2 - Power Consumed at minute m 
3 - Power Produced at minute m 
4 - Energy Consumed since the beginning of the day 
5 - Energy Produced since the beginning of the day 
6 - Energy Lost since the beginning of the day 
 
0 ; 7849913.152397009 ; 6.331074238827621E8 ; 0.0 ; 0.0 ; 0.0
1 ; 7884051.748811735 ; 6.340135063971934E8 ; 7849913.152397009 ; 6.331074238827621E8 ; 0.0
2 ; 7925257.389489307 ; 6.367733666217343E8 ; 1.5733964901208743E7 ; 1.2671209302799554E9 ; 0.0
3 ; 7973373.724422025 ; 6.413870555716903E8 ; 2.365922229069805E7 ; 1.9038942969016895E9 ; 0.0
4 ; 8024785.411583591 ; 6.478546201062775E8 ; 3.1632596015120074E7 ; 2.54528135247338E9 ; 0.0
5 ; 8100284.223324945 ; 6.561761023131583E8 ; 3.965738142670366E7 ; 3.1931359725796576E9 ; 0.0
6 ; 8176854.9374059 ; 6.663515389271221E8 ; 4.775766565002861E7 ; 3.8493120748928156E9 ; 0.0
7 ; 8307502.140328493 ; 6.783809608003705E8 ; 5.593452058743451E7 ; 4.515663613819938E9 ; 0.0
8 ; 8492500.418089667 ; 6.922643924413722E8 ; 6.4242022727763E7 ; 5.194044574620308E9 ; 0.0
9 ; 8771795.97479412 ; 7.080018516378727E8 ; 7.273452314585267E7 ; 5.88630896706168E9 ; 0.0
10 ; 9207463.624454288 ; 7.255933491773286E8 ; 8.150631912064679E7 ; 6.594310818699553E9 ; 0.0
11 ; 9900807.988577459 ; 7.4503888867491E8 ; 9.071378274510108E7 ; 7.319904167876881E9 ; 0.0
12 ; 1.1007793903612632E7 ; 7.663384665154463E8 ; 1.0061459073367853E8 ; 8.06494305655179E9 ; 0.0
13 ; 1.206517584628471E7 ; 7.894920719114816E8 ; 1.1162238463729116E8 ; 8.831281523067236E9 ; 0.0
14 ; 1.2192938782351503E7 ; 8.144996870752702E8 ; 1.2368756048357588E8 ; 9.620773594978718E9 ; 0.0
15 ; 1.2251807024952821E7 ; 8.413612874983432E8 ; 1.3588049926592737E8 ; 1.0435273282053988E10 ; 0.0
16 ; 1.2292638614170063E7 ; 8.700768423284998E8 ; 1.481323062908802E8 ; 1.127663456955233E10 ; 0.0
17 ; 1.2340378106067201E7 ; 9.006463148309495E8 ; 1.6042494490505028E8 ; 1.2146711411880829E10 ; 0.0
18 ; 1.2395593771844205E7 ; 9.330696629180305E8 ; 1.727653230111175E8 ; 1.3047357726711779E10 ; 0.0
19 ; 1.2442168457431998E7 ; 9.673468397305267E8 ; 1.851609167829617E8 ; 1.3980427389629808E10 ; 0.0
20 ; 1.2500957075120928E7 ; 1.0034777942531322E9 ; 1.976030852403937E8 ; 1.4947774229360334E10 ; 0.0
21 ; 1.2546535212522727E7 ; 1.0414624719470004E9 ; 2.1010404231551462E8 ; 1.5951252023613466E10 ; 0.0
22 ; 1.2589197200593725E7 ; 1.081300815383422E9 ; 2.2265057752803734E8 ; 1.6992714495560467E10 ; 0.0
23 ; 1.2644089105585288E7 ; 1.1229927648643928E9 ; 2.3523977472863108E8 ; 1.807401531094389E10 ; 0.0
24 ; 1.2704998790131018E7 ; 1.166538259017918E9 ; 2.4788386383421636E8 ; 1.919700807580828E10 ; 0.0
25 ; 1.275056392218811E7 ; 1.2040654807473373E9 ; 2.605888626243474E8 ; 2.03635463348262E10 ; 0.0
26 ; 1.2804941637479324E7 ; 1.2040956539704034E9 ; 2.733394265465355E8 ; 2.1567611815573536E10 ; 0.0
27 ; 1.2847266301037755E7 ; 1.2041273312387648E9 ; 2.861443681840148E8 ; 2.2771707469543938E10 ; 0.0
28 ; 1.2897762584022174E7 ; 1.2041604496380172E9 ; 2.989916344850525E8 ; 2.3975834800782703E10 ; 0.0
29 ; 1.2952126763438487E7 ; 1.2041949469148307E9 ; 3.118893970690747E8 ; 2.517999525042072E10 ; 0.0
30 ; 1.2994459439206641E7 ; 1.2042307617932968E9 ; 3.2484152383251315E8 ; 2.638419019733555E10 ; 0.0
31 ; 1.3043865394788388E7 ; 1.2042678342416897E9 ; 3.378359832717198E8 ; 2.7588420959128845E10 ; 0.0
32 ; 1.3088548039648486E7 ; 1.2043061056923451E9 ; 3.508798486665082E8 ; 2.8792688793370537E10 ; 0.0
33 ; 1.3138114979783349E7 ; 1.204345519218029E9 ; 3.639683967061567E8 ; 2.999699489906288E10 ; 0.0
34 ; 1.3187421036061317E7 ; 1.20438601966862E9 ; 3.7710651168594E8 ; 3.120134041828091E10 ; 0.0
35 ; 1.322145521383498E7 ; 1.2044275537721581E9 ; 3.902939327220013E8 ; 3.240572643794953E10 ; 0.0
36 ; 1.3261845959275939E7 ; 1.2044700702043548E9 ; 4.035153879358363E8 ; 3.361015399172169E10 ; 0.0
37 ; 1.3305725057038885E7 ; 1.2045135196306088E9 ; 4.167772338951123E8 ; 3.481462406192605E10 ; 0.0
38 ; 1.334359418787587E7 ; 1.2045578547243607E9 ; 4.300829589521512E8 ; 3.6019137581556656E10 ; 0.0
39 ; 1.3385608527059931E7 ; 1.204603030165407E9 ; 4.4342655314002705E8 ; 3.722369543628101E10 ; 0.0
40 ; 1.3421889520386439E7 ; 1.2046490026214764E9 ; 4.5681216166708696E8 ; 3.842829846644642E10 ; 0.0
41 ; 1.3453702990911994E7 ; 1.2046957307160742E9 ; 4.702340511874734E8 ; 3.9632947469067894E10 ; 0.0
42 ; 1.3489277791388601E7 ; 1.204743174985269E9 ; 4.8368775417838544E8 ; 4.0837643199783966E10 ; 0.0
43 ; 1.3524707044091903E7 ; 1.2047912978257818E9 ; 4.97177031969774E8 ; 4.204238637476923E10 ; 0.0
44 ; 1.3551723359596021E7 ; 1.2048400634364355E9 ; 5.107017390138659E8 ; 4.324717767259502E10 ; 0.0
45 ; 1.3581374646933317E7 ; 1.204889437754735E9 ; 5.242534623734619E8 ; 4.445201773603145E10 ; 0.0
46 ; 1.3608993025386382E7 ; 1.2049393883900871E9 ; 5.378348370203953E8 ; 4.565690717378619E10 ; 0.0
47 ; 1.3629979649309667E7 ; 1.2049898845549335E9 ; 5.514438300457816E8 ; 4.686184656217627E10 ; 0.0
48 ; 1.36507870629934E7 ; 1.205040896994856E9 ; 5.650738096950912E8 ; 4.80668364467312E10 ; 0.0
49 ; 1.3671546000028487E7 ; 1.2050923979185297E9 ; 5.787245967580847E8 ; 4.927187734372606E10 ; 0.0
50 ; 1.369226635819937E7 ; 1.2051443609282296E9 ; 5.923961427581131E8 ; 5.047696974164459E10 ; 0.0
51 ; 1.370789161079482E7 ; 1.2051967609514623E9 ; 6.060884091163125E8 ; 5.168211410257282E10 ; 0.0
52 ; 1.372153864069561E7 ; 1.2052495741741645E9 ; 6.197963007271073E8 ; 5.2887310863524284E10 ; 0.0
53 ; 1.3743500344499106E7 ; 1.2053027779758112E9 ; 6.335178393678029E8 ; 5.409256043769845E10 ; 0.0
54 ; 1.37559186835375E7 ; 1.2053563508666892E9 ; 6.47261339712302E8 ; 5.529786321567426E10 ; 0.0
55 ; 1.3770090470445042E7 ; 1.2054102724275138E9 ; 6.610172583958395E8 ; 5.6503219566540955E10 ; 0.0
56 ; 1.3783729382816218E7 ; 1.205464523251511E9 ; 6.747873488662845E8 ; 5.770862983896847E10 ; 0.0
57 ; 1.3804375052162707E7 ; 1.2055190848890326E9 ; 6.885710782491007E8 ; 5.891409436221998E10 ; 0.0
58 ; 1.3816312752500098E7 ; 1.2055739397947345E9 ; 7.023754533012633E8 ; 6.011961344710901E10 ; 0.0
59 ; 1.3835884205614336E7 ; 1.2056290712773144E9 ; 7.161917660537634E8 ; 6.132518738690374E10 ; 0.0
60 ; 1.384848927716299E7 ; 1.205684463451777E9 ; 7.300276502593777E8 ; 6.253081645818105E10 ; 0.0
61 ; 1.385744843698647E7 ; 1.2057401011941788E9 ; 7.438761395365407E8 ; 6.373650092163283E10 ; 0.0
62 ; 1.3879443749605635E7 ; 1.2057959700987842E9 ; 7.577335879735272E8 ; 6.4942241022827E10 ; 0.0
63 ; 1.3887705971259518E7 ; 1.2058520564375563E9 ; 7.716130317231328E8 ; 6.614803699292579E10 ; 0.0
64 ; 1.3901335807561675E7 ; 1.2059083471218965E9 ; 7.855007376943923E8 ; 6.735388904936334E10 ; 0.0
65 ; 1.391595911515702E7 ; 1.205964829666541E9 ; 7.99402073501954E8 ; 6.855979739648524E10 ; 0.0
66 ; 1.3924040599438421E7 ; 1.206021492155519E9 ; 8.13318032617111E8 ; 6.976576222615178E10 ; 0.0
67 ; 1.394084348177934E7 ; 1.2060783232100754E9 ; 8.272420732165494E8 ; 7.09717837183073E10 ; 0.0
68 ; 1.3947961255021708E7 ; 1.2061353119584632E9 ; 8.411829166983287E8 ; 7.217786204151736E10 ; 0.0
69 ; 1.3963916069567306E7 ; 1.2061924480075064E9 ; 8.551308779533504E8 ; 7.338399735347583E10 ; 0.0
70 ; 1.3975548216272462E7 ; 1.2062497214158416E9 ; 8.690947940229177E8 ; 7.459018980148334E10 ; 0.0
71 ; 1.3985975433366433E7 ; 1.2063071226687448E9 ; 8.830703422391902E8 ; 7.579643952289919E10 ; 0.0
72 ; 1.3995873392303616E7 ; 1.2063646426544578E9 ; 8.970563176725566E8 ; 7.700274664556793E10 ; 0.0
73 ; 1.4006478727503918E7 ; 1.2064222726419215E9 ; 9.110521910648602E8 ; 7.82091112882224E10 ; 0.0
74 ; 1.4014865712084588E7 ; 1.2064800042598433E9 ; 9.250586697923641E8 ; 7.941553356086432E10 ; 0.0
75 ; 1.4025843503778383E7 ; 1.2065378294770126E9 ; 9.390735355044487E8 ; 8.062201356512416E10 ; 0.0
76 ; 1.4031157415462127E7 ; 1.2065957405837934E9 ; 9.53099379008227E8 ; 8.182855139460117E10 ; 0.0
77 ; 1.4043299563616168E7 ; 1.2066537301747227E9 ; 9.671305364236891E8 ; 8.303514713518495E10 ; 0.0
78 ; 1.4040529161510516E7 ; 1.2067117911321456E9 ; 9.811738359873053E8 ; 8.424180086535968E10 ; 0.0
79 ; 1.403947489980888E7 ; 1.206769916610827E9 ; 9.952143651488158E8 ; 8.544851265649182E10 ; 0.0
80 ; 1.4032375239530748E7 ; 1.2068281000234754E9 ; 1.0092538400486246E9 ; 8.665528257310265E10 ; 0.0
81 ; 1.4027847963024482E7 ; 1.2068863350271282E9 ; 1.0232862152881554E9 ; 8.786211067312611E10 ; 0.0
82 ; 1.4024718603400657E7 ; 1.206944615510339E9 ; 1.0373140632511799E9 ; 8.906899700815324E10 ; 0.0
83 ; 1.4020941587348828E7 ; 1.2070029355811207E9 ; 1.0513387818545806E9 ; 9.027594162366359E10 ; 0.0
84 ; 1.4007759659220913E7 ; 1.2070612895555968E9 ; 1.0653597234419295E9 ; 9.14829445592447E10 ; 0.0
85 ; 1.4006695766990772E7 ; 1.2071196719473174E9 ; 1.0793674831011503E9 ; 9.269000584880031E10 ; 0.0
86 ; 1.3998784107394911E7 ; 1.2071780774571943E9 ; 1.093374178868141E9 ; 9.389712552074762E10 ; 0.0
87 ; 1.3987826061432593E7 ; 1.2072365009640248E9 ; 1.1073729629755359E9 ; 9.510430359820482E10 ; 0.0
88 ; 1.3978118298282098E7 ; 1.207294937515559E9 ; 1.1213607890369685E9 ; 9.631154009916884E10 ; 0.0
89 ; 1.3976909187216364E7 ; 1.2073533823200808E9 ; 1.1353389073352506E9 ; 9.75188350366844E10 ; 0.0
90 ; 1.3972366945516458E7 ; 1.2074118307384725E9 ; 1.149315816522467E9 ; 9.872618841900449E10 ; 0.0
91 ; 1.3961028807073288E7 ; 1.20747027827673E9 ; 1.1632881834679832E9 ; 9.993360024974297E10 ; 0.0
92 ; 1.3948952763954382E7 ; 1.2075287205789008E9 ; 1.1772492122750566E9 ; 1.011410705280197E11 ; 0.0
93 ; 1.3942703590620505E7 ; 1.207587153420421E9 ; 1.191198165039011E9 ; 1.023485992485986E11 ; 0.0
94 ; 1.393439817684203E7 ; 1.2076455727018244E9 ; 1.2051408686296315E9 ; 1.0355618640201903E11 ; 0.0
95 ; 1.3920686444102261E7 ; 1.2077039744428055E9 ; 1.2190752668064735E9 ; 1.0476383197472086E11 ; 0.0
96 ; 1.3915270975810826E7 ; 1.2077623547766056E9 ; 1.2329959532505758E9 ; 1.0597153594916367E11 ; 0.0
97 ; 1.3903490034635324E7 ; 1.2078207099447136E9 ; 1.2469112242263865E9 ; 1.0717929830394028E11 ; 0.0
98 ; 1.3897210290404126E7 ; 1.207879036291854E9 ; 1.2608147142610219E9 ; 1.08387119013885E11 ; 0.0
99 ; 1.388478596856205E7 ; 1.20793733026125E9 ; 1.274711924551426E9 ; 1.0959499805017685E11 ; 0.0
100 ; 1.3878773255212735E7 ; 1.2079955883901408E9 ; 1.288596710519988E9 ; 1.108029353804381E11 ; 0.0
101 ; 1.387020038284161E7 ; 1.2080538073055415E9 ; 1.3024754837752008E9 ; 1.1201093096882823E11 ; 0.0
102 ; 1.3857172948594924E7 ; 1.208111983720231E9 ; 1.3163456841580424E9 ; 1.1321898477613377E11 ; 0.0
103 ; 1.384213947478706E7 ; 1.2081701144289513E9 ; 1.3302028571066372E9 ; 1.14427096759854E11 ; 0.0
104 ; 1.382658543872827E7 ; 1.208228196304808E9 ; 1.3440449965814242E9 ; 1.1563526687428296E11 ; 0.0
105 ; 1.3818319336311696E7 ; 1.208286226295862E9 ; 1.3578715820201526E9 ; 1.1684349507058777E11 ; 0.0
106 ; 1.3804219759067543E7 ; 1.208344201421897E9 ; 1.3716899013564641E9 ; 1.1805178129688364E11 ; 0.0
107 ; 1.3791625137307774E7 ; 1.2084021187713566E9 ; 1.3854941211155317E9 ; 1.1926012549830553E11 ; 0.0
108 ; 1.3781502303478742E7 ; 1.208459975498438E9 ; 1.3992857462528396E9 ; 1.2046852761707689E11 ; 0.0
109 ; 1.376865449047722E7 ; 1.2085177688203351E9 ; 1.4130672485563183E9 ; 1.2167698759257533E11 ; 0.0
110 ; 1.3753652245029047E7 ; 1.2085754960146246E9 ; 1.4268359030467956E9 ; 1.2288550536139566E11 ; 0.0
111 ; 1.3732824048640098E7 ; 1.2086331544167802E9 ; 1.4405895552918246E9 ; 1.2409408085741028E11 ; 0.0
112 ; 1.3719156115751475E7 ; 1.2086907414178164E9 ; 1.4543223793404646E9 ; 1.2530271401182706E11 ; 0.0
113 ; 1.3705675889785616E7 ; 1.208748254462047E9 ; 1.468041535456216E9 ; 1.2651140475324487E11 ; 0.0
114 ; 1.3692570473081376E7 ; 1.208805691044958E9 ; 1.4817472113460016E9 ; 1.2772015300770692E11 ; 0.0
115 ; 1.3681038882052165E7 ; 1.2088630487111833E9 ; 1.495439781819083E9 ; 1.2892895869875188E11 ; 0.0
116 ; 1.3658157687880281E7 ; 1.2089203250525804E9 ; 1.5091208207011352E9 ; 1.3013782174746306E11 ; 0.0
117 ; 1.3648585441323545E7 ; 1.2089775177064023E9 ; 1.5227789783890154E9 ; 1.3134674207251564E11 ; 0.0
118 ; 1.3631669170525517E7 ; 1.2090346243535564E9 ; 1.536427563830339E9 ; 1.3255571959022205E11 ; 0.0
119 ; 1.361842029199851E7 ; 1.209091642716947E9 ; 1.5500592330008645E9 ; 1.337647542145756E11 ; 0.0
120 ; 1.3590548975313384E7 ; 1.2091485705598993E9 ; 1.5636776532928631E9 ; 1.3497384585729256E11 ; 0.0
121 ; 1.3580304034793613E7 ; 1.2092054056846566E9 ; 1.5772682022681766E9 ; 1.3618299442785246E11 ; 0.0
122 ; 1.356218357823272E7 ; 1.2092621459309506E9 ; 1.5908485063029702E9 ; 1.3739219983353712E11 ; 0.0
123 ; 1.354068546324002E7 ; 1.2093187891746392E9 ; 1.604410689881203E9 ; 1.3860146197946808E11 ; 0.0
124 ; 1.3523026946876433E7 ; 1.209375333326405E9 ; 1.6179513753444428E9 ; 1.3981078076864273E11 ; 0.0
125 ; 1.3509473242796443E7 ; 1.2094317763305197E9 ; 1.6314744022913194E9 ; 1.4102015610196915E11 ; 0.0
126 ; 1.3493287777300606E7 ; 1.2094881161636622E9 ; 1.6449838755341158E9 ; 1.4222958787829965E11 ; 0.0
127 ; 1.3468531287427988E7 ; 1.2095443508337908E9 ; 1.6584771633114164E9 ; 1.4343907599446332E11 ; 0.0
128 ; 1.3450427235416848E7 ; 1.209600478379071E9 ; 1.6719456945988443E9 ; 1.4464862034529712E11 ; 0.0
129 ; 1.3429741067732926E7 ; 1.2096564968668475E9 ; 1.6853961218342612E9 ; 1.4585822082367618E11 ; 0.0
130 ; 1.340565534617157E7 ; 1.2097124043926666E9 ; 1.698825862901994E9 ; 1.4706787732054303E11 ; 0.0
131 ; 1.336936698405176E7 ; 1.2097681990793397E9 ; 1.7122315182481656E9 ; 1.482775897249357E11 ; 0.0
132 ; 1.3335787754097592E7 ; 1.2098238790760517E9 ; 1.7256008852322173E9 ; 1.4948735792401505E11 ; 0.0
133 ; 1.3295027369259689E7 ; 1.2098794425575068E9 ; 1.738936672986315E9 ; 1.506971818030911E11 ; 0.0
134 ; 1.328083638729594E7 ; 1.209934887723114E9 ; 1.7522317003555746E9 ; 1.519070612456486E11 ; 0.0
135 ; 1.323809274496245E7 ; 1.2099902127962065E9 ; 1.7655125367428706E9 ; 1.531169961333717E11 ; 0.0
136 ; 1.3194308936340244E7 ; 1.2100454160232983E9 ; 1.778750629487833E9 ; 1.543269863461679E11 ; 0.0
137 ; 1.3164054888857022E7 ; 1.21010049567337E9 ; 1.7919449384241734E9 ; 1.555370317621912E11 ; 0.0
138 ; 1.3122610206336845E7 ; 1.2101554500371885E9 ; 1.8051089933130305E9 ; 1.5674713225786456E11 ; 0.0
139 ; 1.3088612307198739E7 ; 1.210210277426655E9 ; 1.8182316035193672E9 ; 1.5795728770790176E11 ; 0.0
140 ; 1.3054774779104346E7 ; 1.21026497617418E9 ; 1.831320215826566E9 ; 1.5916749798532843E11 ; 0.0
141 ; 1.3019042648500312E7 ; 1.2103195446320872E9 ; 1.8443749906056702E9 ; 1.6037776296150262E11 ; 0.0
142 ; 1.2982012240152638E7 ; 1.2103739811720407E9 ; 1.8573940332541704E9 ; 1.615880825061347E11 ; 0.0
143 ; 1.2944547239230236E7 ; 1.2104282841844978E9 ; 1.870376045494323E9 ; 1.6279845648730673E11 ; 0.0
144 ; 1.2910664458150916E7 ; 1.2104824520781858E9 ; 1.8833205927335532E9 ; 1.6400888477149124E11 ; 0.0
145 ; 1.289244919030585E7 ; 1.2105364832795973E9 ; 1.896231257191704E9 ; 1.6521936722356943E11 ; 0.0
146 ; 1.2869481179768126E7 ; 1.210590376232511E9 ; 1.90912370638201E9 ; 1.6642990370684903E11 ; 0.0
147 ; 1.2852121319537006E7 ; 1.2106441293975294E9 ; 1.921993187561778E9 ; 1.6764049408308154E11 ; 0.0
148 ; 1.282884266519618E7 ; 1.2106977412516365E9 ; 1.934845308881315E9 ; 1.6885113821247906E11 ; 0.0
149 ; 1.2812031662219653E7 ; 1.2107512102877748E9 ; 1.9476741515465112E9 ; 1.700618359537307E11 ; 0.0
150 ; 1.278495799609691E7 ; 1.2108045350144377E9 ; 1.960486183208731E9 ; 1.712725871640185E11 ; 0.0
151 ; 1.2772645408369247E7 ; 1.2108577139552794E9 ; 1.9732711412048278E9 ; 1.7248339169903293E11 ; 0.0
152 ; 1.2747617175119512E7 ; 1.2109107456487427E9 ; 1.986043786613197E9 ; 1.7369424941298822E11 ; 0.0
153 ; 1.2722471189591955E7 ; 1.2109636286476989E9 ; 1.9987914037883165E9 ; 1.7490516015863696E11 ; 0.0
154 ; 1.2701511409329558E7 ; 1.211016361519103E9 ; 2.0115138749779084E9 ; 1.7611612378728467E11 ; 0.0
155 ; 1.2678908789707376E7 ; 1.2110689428436646E9 ; 2.024215386387238E9 ; 1.7732714014880377E11 ; 0.0
156 ; 1.266264178496481E7 ; 1.21112137121553E9 ; 2.0368942951769454E9 ; 1.7853820909164743E11 ; 0.0
157 ; 1.26471586219784E7 ; 1.211173645241977E9 ; 2.0495569369619102E9 ; 1.7974933046286295E11 ; 0.0
158 ; 1.2627445226381598E7 ; 1.2112257635431242E9 ; 2.0622040955838885E9 ; 1.8096050410810492E11 ; 0.0
159 ; 1.2597730278476788E7 ; 1.2112777247516484E9 ; 2.07483154081027E9 ; 1.8217172987164804E11 ; 0.0
160 ; 1.2581366313218093E7 ; 1.2113295275125165E9 ; 2.0874292710887468E9 ; 1.833830075963997E11 ; 0.0
161 ; 1.2557201522354899E7 ; 1.2113811704827247E9 ; 2.100010637401965E9 ; 1.845943371239122E11 ; 0.0
162 ; 1.2530977012853175E7 ; 1.2114326523310513E9 ; 2.1125678389243197E9 ; 1.8580571829439493E11 ; 0.0
163 ; 1.2514943741299408E7 ; 1.2114839717378166E9 ; 2.125098815937173E9 ; 1.8701715094672598E11 ; 0.0
164 ; 1.2488631471821055E7 ; 1.2115351273946524E9 ; 2.1376137596784723E9 ; 1.882286349184638E11 ; 0.0
165 ; 1.247468925158305E7 ; 1.2115861180042832E9 ; 2.1501023911502934E9 ; 1.8944017004585846E11 ; 0.0
166 ; 1.2448086335325241E7 ; 1.211636942280311E9 ; 2.1625770804018764E9 ; 1.9065175616386273E11 ; 0.0
167 ; 1.2426477146850802E7 ; 1.2116875989470139E9 ; 2.1750251667372017E9 ; 1.9186339310614304E11 ; 0.0
168 ; 1.240482451371022E7 ; 1.2117380867391474E9 ; 2.1874516438840523E9 ; 1.9307508070509006E11 ; 0.0
169 ; 1.2385062318702195E7 ; 1.2117884044017577E9 ; 2.1998564683977623E9 ; 1.942868187918292E11 ; 0.0
170 ; 1.236282254839312E7 ; 1.2118385506899986E9 ; 2.2122415307164645E9 ; 1.9549860719623096E11 ; 0.0
171 ; 1.2334687619264225E7 ; 1.2118885243689582E9 ; 2.224604353264858E9 ; 1.9671044574692096E11 ; 0.0
172 ; 1.2319375726615831E7 ; 1.21193832421349E9 ; 2.236939040884122E9 ; 1.9792233427128992E11 ; 0.0
173 ; 1.2295238621927986E7 ; 1.2119879490080514E9 ; 2.249258416610738E9 ; 1.9913427259550342E11 ; 0.0
174 ; 1.227834495166491E7 ; 1.2120373975465493E9 ; 2.261553655232666E9 ; 2.0034626054451147E11 ; 0.0
175 ; 1.2267401404460361E7 ; 1.212086668632189E9 ; 2.273832000184331E9 ; 2.01558297942058E11 ; 0.0
176 ; 1.2249233065619988E7 ; 1.2121357610773327E9 ; 2.2860994015887914E9 ; 2.0277038461069022E11 ; 0.0
177 ; 1.2231806875147885E7 ; 1.2121846737033577E9 ; 2.2983486346544113E9 ; 2.0398252037176755E11 ; 0.0
178 ; 1.221227853202921E7 ; 1.2122334053405268E9 ; 2.310580441529559E9 ; 2.0519470504547092E11 ; 0.0
179 ; 1.2194342320767902E7 ; 1.212281954827857E9 ; 2.3227927200615883E9 ; 2.0640693845081143E11 ; 0.0
180 ; 1.2185072684643729E7 ; 1.2123303210129983E9 ; 2.334987062382356E9 ; 2.0761922040563928E11 ; 0.0
181 ; 1.216463367218763E7 ; 1.2123785027521133E9 ; 2.347172135067E9 ; 2.0883155072665228E11 ; 0.0
182 ; 1.2147373637196735E7 ; 1.2124264989097643E9 ; 2.3593367687391877E9 ; 2.100439292294044E11 ; 0.0
183 ; 1.2135561250293406E7 ; 1.2124743083588023E9 ; 2.3714841423763843E9 ; 2.1125635572831415E11 ; 0.0
184 ; 1.21183398637558E7 ; 1.2125219299802613E9 ; 2.3836197036266775E9 ; 2.1246883003667294E11 ; 0.0
185 ; 1.2102459311962787E7 ; 1.2125693626632557E9 ; 2.395738043490433E9 ; 2.136813519666532E11 ; 0.0
186 ; 1.2083633955851149E7 ; 1.2126166053048835E9 ; 2.407840502802396E9 ; 2.1489392132931647E11 ; 0.0
187 ; 1.205987179813116E7 ; 1.2126636568101301E9 ; 2.419924136758247E9 ; 2.1610653793462134E11 ; 0.0
188 ; 1.2057622109564569E7 ; 1.2127105160917792E9 ; 2.431984008556378E9 ; 2.1731920159143146E11 ; 0.0
189 ; 1.2037611072435651E7 ; 1.212757182070323E9 ; 2.4440416306659427E9 ; 2.1853191210752322E11 ; 0.0
190 ; 1.2019540529775603E7 ; 1.2128036536738791E9 ; 2.4560792417383785E9 ; 2.1974466928959354E11 ; 0.0
191 ; 1.2005944448650911E7 ; 1.2128499298381095E9 ; 2.468098782268154E9 ; 2.2095747294326743E11 ; 0.0
192 ; 1.198783934527685E7 ; 1.212896009506141E9 ; 2.480104726716805E9 ; 2.2217032287310553E11 ; 0.0
193 ; 1.1969252052601827E7 ; 1.2129418916284919E9 ; 2.492092566062082E9 ; 2.2338321888261166E11 ; 0.0
194 ; 1.1951791860646993E7 ; 1.2129875751629972E9 ; 2.5040618181146836E9 ; 2.2459616077424014E11 ; 0.0
195 ; 1.1940044159339577E7 ; 1.2130330590747411E9 ; 2.516013609975331E9 ; 2.2580914834940314E11 ; 0.0
