CSV File for the Network on Day 47
1 - Minute m 
2 - Power Consumed at minute m 
3 - Power Produced at minute m 
4 - Energy Consumed since the beginning of the day 
5 - Energy Produced since the beginning of the day 
6 - Energy Lost since the beginning of the day 
 
0 ; 4535876.2457403205 ; 2.1075204474130303E8 ; 0.0 ; 0.0 ; 0.0
1 ; 4539179.0214436855 ; 2.110572985901444E8 ; 4535876.2457403205 ; 2.1075204474130303E8 ; 356.14
2 ; 4544290.446329442 ; 2.119801693458681E8 ; 9075055.267184006 ; 4.218093433314474E8 ; 712.28
3 ; 4549565.648831698 ; 2.1352066449987525E8 ; 1.3619345713513449E7 ; 6.337895126773155E8 ; 1068.42
4 ; 4553112.345485407 ; 2.156787908909223E8 ; 1.8168911362345148E7 ; 8.473101771771908E8 ; 1424.56
5 ; 4556490.267315676 ; 2.184545546273678E8 ; 2.2722023707830556E7 ; 1.0629889680681131E9 ; 1780.6999999999998
6 ; 4560237.577803119 ; 2.2184796101472884E8 ; 2.7278513975146234E7 ; 1.2814435226954808E9 ; 2136.8399999999997
7 ; 4564590.31602085 ; 2.258590144904427E8 ; 3.1838751552949354E7 ; 1.5032914837102096E9 ; 2492.9799999999996
8 ; 4570039.698131766 ; 2.3048771856763375E8 ; 3.64033418689702E7 ; 1.7291504982006524E9 ; 2849.1199999999994
9 ; 4573027.69749476 ; 2.3573407578950793E8 ; 4.097338156710197E7 ; 1.9596382167682862E9 ; 3205.2599999999993
10 ; 4574053.6467579175 ; 2.415980876957358E8 ; 4.554640926459673E7 ; 2.195372292557794E9 ; 3561.399999999999
11 ; 4579146.210133074 ; 2.4807975480185366E8 ; 5.0120462911354646E7 ; 2.43697038025353E9 ; 3917.539999999999
12 ; 4582028.943863226 ; 2.5517907659232515E8 ; 5.469960912148772E7 ; 2.6850501350553837E9 ; 4273.679999999999
13 ; 4584580.3152680285 ; 2.628960515274797E8 ; 5.928163806535095E7 ; 2.940229211647709E9 ; 4629.82
14 ; 4589153.692037371 ; 2.712306770641116E8 ; 6.3866218380618975E7 ; 3.2031252631751885E9 ; 4985.96
15 ; 4590489.929451885 ; 2.8018294968909615E8 ; 6.845537207265635E7 ; 3.4743559402393003E9 ; 5342.1
16 ; 4594752.305157075 ; 2.897528649649964E8 ; 7.304586200210823E7 ; 3.754538889928396E9 ; 5698.240000000001
17 ; 4598367.330290902 ; 2.99940417586295E8 ; 7.764061430726531E7 ; 4.0442917548933926E9 ; 6054.380000000001
18 ; 4600889.908268596 ; 3.1074560144463354E8 ; 8.223898163755621E7 ; 4.344232172479688E9 ; 6410.520000000001
19 ; 4604106.4224612815 ; 3.221684097012555E8 ; 8.683987154582481E7 ; 4.654977773924321E9 ; 6766.660000000002
20 ; 4606468.6899866555 ; 3.3420883486475974E8 ; 9.14439779682861E7 ; 4.977146183625577E9 ; 7122.800000000002
21 ; 4610002.152987941 ; 3.468668688722589E8 ; 9.605044665827276E7 ; 5.311355018490336E9 ; 7478.940000000002
22 ; 4614100.249078635 ; 3.6014250317210156E8 ; 1.006604488112607E8 ; 5.658221887362596E9 ; 7835.080000000003
23 ; 4617814.0750055015 ; 3.740357288064451E8 ; 1.0527454906033933E8 ; 6.018364390534698E9 ; 8191.220000000003
24 ; 4622193.661844279 ; 3.885465364921451E8 ; 1.0989236313534483E8 ; 6.392400119341143E9 ; 8547.360000000002
25 ; 4624103.454307385 ; 4.0105099849500763E8 ; 1.1451455679718912E8 ; 6.780946655833288E9 ; 8903.500000000002
26 ; 4626071.145392384 ; 4.0105620077737254E8 ; 1.191386602514965E8 ; 7.181997654328296E9 ; 9259.640000000001
27 ; 4629691.750652377 ; 4.010616721167712E8 ; 1.2376473139688888E8 ; 7.583053855105668E9 ; 9615.78
28 ; 4631597.468233787 ; 4.010674026627656E8 ; 1.2839442314754125E8 ; 7.984115527222439E9 ; 9971.92
29 ; 4634781.998919506 ; 4.010733825807816E8 ; 1.3302602061577505E8 ; 8.385182929885204E9 ; 10328.06
30 ; 4636004.9975854885 ; 4.010796021033002E8 ; 1.3766080261469457E8 ; 8.786256312465986E9 ; 10684.199999999999
31 ; 4639662.141192375 ; 4.0108605157487226E8 ; 1.4229680761228004E8 ; 9.187335914569286E9 ; 11040.339999999998
32 ; 4643501.649872031 ; 4.0109272149106956E8 ; 1.4693646975347242E8 ; 9.58842196614416E9 ; 11396.479999999998
33 ; 4645683.261725978 ; 4.0109960253160584E8 ; 1.5157997140334445E8 ; 9.98951468763523E9 ; 11752.619999999997
34 ; 4649965.28847552 ; 4.0110668558794415E8 ; 1.5622565466507044E8 ; 1.0390614290166836E10 ; 12108.759999999997
35 ; 4650426.467808644 ; 4.011139617857728E8 ; 1.6087561995354596E8 ; 1.079172097575478E10 ; 12464.899999999996
36 ; 4651511.420303533 ; 4.011214225027705E8 ; 1.655260464213546E8 ; 1.1192834937540552E10 ; 12821.039999999995
37 ; 4653582.165227727 ; 4.0112905938210523E8 ; 1.7017755784165812E8 ; 1.1593956360043324E10 ; 13177.179999999995
38 ; 4655892.728197529 ; 4.011368643421148E8 ; 1.7483114000688586E8 ; 1.1995085419425428E10 ; 13533.319999999994
39 ; 4659113.1903649075 ; 4.011448295826115E8 ; 1.7948703273508337E8 ; 1.2396222283767544E10 ; 13889.459999999994
40 ; 4661166.417159286 ; 4.011529475882391E8 ; 1.8414614592544827E8 ; 1.2797367113350155E10 ; 14245.599999999993
41 ; 4661895.755186666 ; 4.0116121112928265E8 ; 1.8880731234260756E8 ; 1.3198520060938395E10 ; 14601.739999999993
42 ; 4665645.936963999 ; 4.011696132603097E8 ; 1.9346920809779423E8 ; 1.3599681272067677E10 ; 14957.879999999992
43 ; 4662511.06102585 ; 4.011781473169849E8 ; 1.9813485403475824E8 ; 1.4000850885327986E10 ; 15314.019999999991
44 ; 4666236.028431129 ; 4.011868069113731E8 ; 2.027973650957841E8 ; 1.440202903264497E10 ; 15670.15999999999
45 ; 4668470.19228484 ; 4.011955859260096E8 ; 2.0746360112421522E8 ; 1.4803215839556343E10 ; 16026.29999999999
46 ; 4671072.001251404 ; 4.012044785069884E8 ; 2.1213207131650007E8 ; 1.5204411425482353E10 ; 16382.43999999999
47 ; 4672230.572485241 ; 4.0121347905628633E8 ; 2.1680314331775147E8 ; 1.5605615903989342E10 ; 16738.57999999999
48 ; 4674810.377413057 ; 4.012225822235143E8 ; 2.214753738902367E8 ; 1.6006829383045628E10 ; 17094.71999999999
49 ; 4676383.116503137 ; 4.0123178289726055E8 ; 2.2615018426764977E8 ; 1.6408051965269142E10 ; 17450.85999999999
50 ; 4675707.477320308 ; 4.012410761961675E8 ; 2.3082656738415292E8 ; 1.6809283748166403E10 ; 17806.99999999999
51 ; 4677242.752873933 ; 4.012504574598601E8 ; 2.3550227486147323E8 ; 1.721052482436257E10 ; 18163.13999999999
52 ; 4677544.132507879 ; 4.012599222398275E8 ; 2.4017951761434716E8 ; 1.7611775281822433E10 ; 18519.279999999988
53 ; 4678414.252415617 ; 4.0126946629034036E8 ; 2.4485706174685505E8 ; 1.801303520406226E10 ; 18875.419999999987
54 ; 4679519.8136717295 ; 4.0127908555947256E8 ; 2.4953547599927068E8 ; 1.84143046703526E10 ; 19231.559999999987
55 ; 4679237.85334548 ; 4.0128877618028176E8 ; 2.5421499581294242E8 ; 1.881558375591207E10 ; 19587.699999999986
56 ; 4679345.81616032 ; 4.0129853446219265E8 ; 2.588942336662879E8 ; 1.9216872532092354E10 ; 19943.839999999986
57 ; 4679351.507397657 ; 4.0130835688261795E8 ; 2.6357357948244822E8 ; 1.9618171066554546E10 ; 20299.979999999985
58 ; 4683002.952424519 ; 4.013182400788414E8 ; 2.6825293098984587E8 ; 2.0019479423437164E10 ; 20656.119999999984
59 ; 4682359.183423239 ; 4.013281808401818E8 ; 2.729359339422704E8 ; 2.0420797663516006E10 ; 21012.259999999984
60 ; 4684452.505908709 ; 4.0133817610045177E8 ; 2.776182931256936E8 ; 2.082212584435619E10 ; 21368.399999999983
61 ; 4685658.0317919105 ; 4.013482229307169E8 ; 2.8230274563160235E8 ; 2.1223464020456642E10 ; 21724.539999999983
62 ; 4685355.114917269 ; 4.0135831853236103E8 ; 2.869884036633943E8 ; 2.162481224338736E10 ; 22080.679999999982
63 ; 4687328.636436077 ; 4.013684602304561E8 ; 2.9167375877831155E8 ; 2.202617056191972E10 ; 22436.81999999998
64 ; 4688073.563287459 ; 4.0137864546743524E8 ; 2.9636108741474766E8 ; 2.2427539022150177E10 ; 22792.95999999998
65 ; 4686728.258805352 ; 4.013888717970628E8 ; 3.010491609780351E8 ; 2.282891766761761E10 ; 23149.09999999998
66 ; 4688903.229590197 ; 4.0139913687869704E8 ; 3.057358892368404E8 ; 2.3230306539414673E10 ; 23505.23999999998
67 ; 4689820.411516009 ; 4.0140943847183514E8 ; 3.104247924664306E8 ; 2.363170567629337E10 ; 23861.37999999998
68 ; 4689760.03399136 ; 4.0141977443093365E8 ; 3.151146128779466E8 ; 2.4033115114765205E10 ; 24217.51999999998
69 ; 4689856.534065108 ; 4.014301427004939E8 ; 3.1980437291193795E8 ; 2.443453488919614E10 ; 24573.659999999978
70 ; 4689984.182709966 ; 4.0144054131040156E8 ; 3.244942294460031E8 ; 2.4835965031896633E10 ; 24929.799999999977
71 ; 4691279.554491985 ; 4.0145096837151194E8 ; 3.291842136287131E8 ; 2.5237405573207035E10 ; 25285.939999999977
72 ; 4691231.467542044 ; 4.0146142207146853E8 ; 3.3387549318320507E8 ; 2.563885654157855E10 ; 25642.079999999976
73 ; 4690134.71894571 ; 4.0147190067074484E8 ; 3.385667246507471E8 ; 2.6040317963650017E10 ; 25998.219999999976
74 ; 4690617.0681301365 ; 4.014824024988998E8 ; 3.432568593696928E8 ; 2.6441789864320763E10 ; 26354.359999999975
75 ; 4692609.70371011 ; 4.014929259510351E8 ; 3.4794747643782294E8 ; 2.6843272266819664E10 ; 26710.499999999975
76 ; 4691449.276966229 ; 4.0150346948444545E8 ; 3.526400861415331E8 ; 2.72447651927707E10 ; 27066.639999999974
77 ; 4691997.903137041 ; 4.015140316154516E8 ; 3.573315354184993E8 ; 2.7646268662255142E10 ; 27422.779999999973
78 ; 4689722.633126421 ; 4.0152461091640556E8 ; 3.620235333216363E8 ; 2.8047782693870594E10 ; 27778.919999999973
79 ; 4689803.606911881 ; 4.015352060128615E8 ; 3.6671325595476276E8 ; 2.8449307304787E10 ; 28135.059999999972
80 ; 4688391.20813555 ; 4.015458155809003E8 ; 3.7140305956167465E8 ; 2.8850842510799862E10 ; 28491.19999999997
81 ; 4689247.708549143 ; 4.0155643834460175E8 ; 3.760914507698102E8 ; 2.9252388326380764E10 ; 28847.33999999997
82 ; 4687909.47742209 ; 4.01567073073655E8 ; 3.8078069847835934E8 ; 2.9653944764725365E10 ; 29203.47999999997
83 ; 4691575.539065252 ; 4.0157771858110046E8 ; 3.8546860795578146E8 ; 3.005551183779902E10 ; 29559.61999999997
84 ; 4690376.700302534 ; 4.01588373721195E8 ; 3.901601834948467E8 ; 3.045708955638012E10 ; 29915.75999999997
85 ; 4688533.07159534 ; 4.0159903738739413E8 ; 3.9485056019514924E8 ; 3.0858677930101315E10 ; 30271.89999999997
86 ; 4688933.698411369 ; 4.0160970851044446E8 ; 3.9953909326674455E8 ; 3.126027696748871E10 ; 30628.039999999968
87 ; 4688655.440833965 ; 4.016203860565797E8 ; 4.042280269651559E8 ; 3.1661886675999153E10 ; 30984.179999999968
88 ; 4688550.859729541 ; 4.0163106902581525E8 ; 4.089166824059899E8 ; 3.2063507062055733E10 ; 31340.319999999967
89 ; 4689643.626843363 ; 4.016417564503344E8 ; 4.136052332657194E8 ; 3.2465138131081547E10 ; 31696.459999999966
90 ; 4689316.026462824 ; 4.016524473929627E8 ; 4.1829487689256275E8 ; 3.286677988753188E10 ; 32052.599999999966
91 ; 4685579.375450615 ; 4.0166314094572383E8 ; 4.229841929190256E8 ; 3.3268432334924843E10 ; 32408.739999999965
92 ; 4687163.635703275 ; 4.016738362284729E8 ; 4.276697722944762E8 ; 3.3670095475870567E10 ; 32764.879999999965
93 ; 4686411.1524090925 ; 4.0168453238760316E8 ; 4.323569359301795E8 ; 3.407176931209904E10 ; 33121.01999999997
94 ; 4684521.377620045 ; 4.016952285948216E8 ; 4.3704334708258855E8 ; 3.447345384448664E10 ; 33477.15999999997
95 ; 4684260.477344756 ; 4.017059240459889E8 ; 4.417278684602086E8 ; 3.487514907308146E10 ; 33833.29999999997
96 ; 4683153.840848228 ; 4.0171661796002144E8 ; 4.4641212893755335E8 ; 3.527685499712745E10 ; 34189.439999999966
97 ; 4683513.156153113 ; 4.017273095778503E8 ; 4.5109528277840155E8 ; 3.567857161508747E10 ; 34545.579999999965
98 ; 4679827.581775645 ; 4.017379981614351E8 ; 4.557787959345547E8 ; 3.608029892466532E10 ; 34901.719999999965
99 ; 4678756.184474408 ; 4.017486829928297E8 ; 4.6045862351633036E8 ; 3.648203692282676E10 ; 35257.859999999964
100 ; 4679299.415890537 ; 4.017593633732949E8 ; 4.6513737970080477E8 ; 3.688378560581959E10 ; 35613.99999999996
101 ; 4680684.093258246 ; 4.017700386224586E8 ; 4.698166791166953E8 ; 3.728554496919289E10 ; 35970.13999999996
102 ; 4679590.838904122 ; 4.017807080775179E8 ; 4.7449736320995355E8 ; 3.7687315007815346E10 ; 36326.27999999996
103 ; 4676135.854182655 ; 4.017913710924828E8 ; 4.791769540488577E8 ; 3.808909571589286E10 ; 36682.41999999996
104 ; 4675419.923041069 ; 4.018020270374574E8 ; 4.8385308990304035E8 ; 3.8490887086985344E10 ; 37038.55999999996
105 ; 4675804.242159031 ; 4.018126752979584E8 ; 4.885285098260814E8 ; 3.8892689114022804E10 ; 37394.69999999996
106 ; 4674348.682680214 ; 4.0182331527426726E8 ; 4.932043140682404E8 ; 3.929450178932076E10 ; 37750.83999999996
107 ; 4671375.055946294 ; 4.01833946380815E8 ; 4.978786627509206E8 ; 3.969632510459503E10 ; 38106.97999999996
108 ; 4672860.702220928 ; 4.01844568045598E8 ; 5.025500378068669E8 ; 4.0098159050975845E10 ; 38463.11999999996
109 ; 4669616.572986947 ; 4.018551797096214E8 ; 5.072228985090878E8 ; 4.050000361902145E10 ; 38819.25999999996
110 ; 4668950.719068653 ; 4.0186578082637215E8 ; 5.1189251508207476E8 ; 4.0901858798731064E10 ; 39175.39999999996
111 ; 4668939.2476758 ; 4.018763708613155E8 ; 5.165614658011434E8 ; 4.1303724579557434E10 ; 39531.53999999996
112 ; 4665862.538545503 ; 4.018869492914177E8 ; 5.212304050488192E8 ; 4.170560095041875E10 ; 39887.67999999996
113 ; 4665454.143680552 ; 4.0189751560469115E8 ; 5.258962675873647E8 ; 4.210748789971017E10 ; 40243.819999999956
114 ; 4662425.82616575 ; 4.019080692997616E8 ; 5.3056172173104525E8 ; 4.250938541531486E10 ; 40599.959999999955
115 ; 4661396.469858133 ; 4.019186098854559E8 ; 5.35224147557211E8 ; 4.291129348461462E10 ; 40956.099999999955
116 ; 4660586.809347282 ; 4.019291368804099E8 ; 5.398855440270691E8 ; 4.331321209450007E10 ; 41312.239999999954
117 ; 4657141.863880418 ; 4.0193964981269443E8 ; 5.445461308364164E8 ; 4.371514123138048E10 ; 41668.379999999954
118 ; 4657000.371083799 ; 4.019501482194591E8 ; 5.492032727002968E8 ; 4.411708088119317E10 ; 42024.51999999995
119 ; 4654748.5948928185 ; 4.019606316465932E8 ; 5.538602730713806E8 ; 4.451903102941263E10 ; 42380.65999999995
120 ; 4654115.592285982 ; 4.0197109964840174E8 ; 5.585150216662735E8 ; 4.492099166105922E10 ; 42736.79999999995
121 ; 4650723.095519755 ; 4.019815517872968E8 ; 5.631691372585595E8 ; 4.532296276070762E10 ; 43092.93999999995
122 ; 4650598.611486623 ; 4.0199198763350356E8 ; 5.678198603540792E8 ; 4.572494431249492E10 ; 43449.07999999995
123 ; 4649095.306419063 ; 4.020024067647792E8 ; 5.724704589655659E8 ; 4.6126936300128426E10 ; 43805.21999999995
124 ; 4643344.439190251 ; 4.020128087661449E8 ; 5.771195542719849E8 ; 4.65289387068932E10 ; 44161.35999999995
125 ; 4641848.659266216 ; 4.0202319322963E8 ; 5.817628987111752E8 ; 4.693095151565935E10 ; 44517.49999999995
126 ; 4638556.5830419315 ; 4.0203355975402796E8 ; 5.864047473704414E8 ; 4.733297470888898E10 ; 44873.63999999995
127 ; 4634770.782429236 ; 4.020439079446628E8 ; 5.910433039534833E8 ; 4.7735008268643005E10 ; 45229.77999999995
128 ; 4634161.615123681 ; 4.020542374131664E8 ; 5.956780747359126E8 ; 4.813705217658767E10 ; 45585.91999999995
129 ; 4631215.601760113 ; 4.020645477772653E8 ; 6.003122363510362E8 ; 4.853910641400084E10 ; 45942.05999999995
130 ; 4628825.377942142 ; 4.0207483866057765E8 ; 6.049434519527963E8 ; 4.894117096177811E10 ; 46298.199999999946
131 ; 4626496.656924568 ; 4.0208510969241804E8 ; 6.095722773307384E8 ; 4.934324580043868E10 ; 46654.339999999946
132 ; 4622229.931752201 ; 4.02095360507612E8 ; 6.14198773987663E8 ; 4.97453309101311E10 ; 47010.479999999945
133 ; 4620052.721471359 ; 4.021055907463176E8 ; 6.188210039194152E8 ; 5.014742627063872E10 ; 47366.619999999944
134 ; 4617781.587064807 ; 4.0211580005385566E8 ; 6.234410566408865E8 ; 5.054953186138503E10 ; 47722.759999999944
135 ; 4614174.278847553 ; 4.021259880805464E8 ; 6.280588382279514E8 ; 5.095164766143889E10 ; 48078.89999999994
136 ; 4611617.848811379 ; 4.0213615448155403E8 ; 6.32673012506799E8 ; 5.135377364951943E10 ; 48435.03999999994
137 ; 4609387.723406629 ; 4.0214629891673696E8 ; 6.372846303556104E8 ; 5.1755909804000984E10 ; 48791.17999999994
138 ; 4606718.507592515 ; 4.021564210505054E8 ; 6.41894018079017E8 ; 5.2158056102917725E10 ; 49147.31999999994
139 ; 4606084.2411295995 ; 4.0216652055168426E8 ; 6.465007365866096E8 ; 5.256021252396823E10 ; 49503.45999999994
140 ; 4602260.33498591 ; 4.02176597093382E8 ; 6.511068208277392E8 ; 5.296237904451991E10 ; 49859.59999999994
141 ; 4597405.095904896 ; 4.021866503528651E8 ; 6.557090811627251E8 ; 5.33645556416133E10 ; 50215.73999999994
142 ; 4595620.957092459 ; 4.0219668001143765E8 ; 6.6030648625863E8 ; 5.376674229196616E10 ; 50571.87999999994
143 ; 4592291.018665779 ; 4.0220668575432616E8 ; 6.649021072157224E8 ; 5.41689389719776E10 ; 50928.01999999994
144 ; 4590620.730442323 ; 4.022166672705686E8 ; 6.694943982343882E8 ; 5.4571145657731926E10 ; 51284.15999999994
145 ; 4587319.741587375 ; 4.0222662425290865E8 ; 6.740850189648305E8 ; 5.4973362325002495E10 ; 51640.29999999994
146 ; 4587468.941874946 ; 4.0223655639769363E8 ; 6.786723387064179E8 ; 5.53755889492554E10 ; 51996.43999999994
147 ; 4586635.04062679 ; 4.022464634047773E8 ; 6.832598076482929E8 ; 5.577782550565309E10 ; 52352.579999999936
148 ; 4584171.888500734 ; 4.02256344977426E8 ; 6.878464426889197E8 ; 5.618007196905787E10 ; 52708.719999999936
149 ; 4582600.380947915 ; 4.022662008222287E8 ; 6.924306145774204E8 ; 5.658232831403529E10 ; 53064.859999999935
150 ; 4580234.393372363 ; 4.0227603064901114E8 ; 6.970132149583683E8 ; 5.698459451485752E10 ; 53420.999999999935
151 ; 4580433.718210226 ; 4.022858341707526E8 ; 7.015934493517407E8 ; 5.738687054550653E10 ; 53777.139999999934
152 ; 4576951.783032903 ; 4.022956111035067E8 ; 7.061738830699509E8 ; 5.7789156379677284E10 ; 54133.27999999993
153 ; 4577797.21319691 ; 4.02305361166325E8 ; 7.107508348529838E8 ; 5.819145199078079E10 ; 54489.41999999993
154 ; 4575938.850764629 ; 4.023150840811838E8 ; 7.153286320661807E8 ; 5.859375735194712E10 ; 54845.55999999993
155 ; 4574959.388193486 ; 4.0232477957291335E8 ; 7.199045709169453E8 ; 5.8996072436028305E10 ; 55201.69999999993
156 ; 4575987.766507586 ; 4.023344473691307E8 ; 7.244795303051388E8 ; 5.939839721560122E10 ; 55557.83999999993
157 ; 4575683.222447292 ; 4.023440872001742E8 ; 7.290555180716465E8 ; 5.980073166297035E10 ; 55913.97999999993
158 ; 4573471.430843968 ; 4.0235369879904145E8 ; 7.336312012940937E8 ; 6.0203075750170525E10 ; 56270.11999999993
159 ; 4570572.148169812 ; 4.0236328190132886E8 ; 7.382046727249377E8 ; 6.060542944896957E10 ; 56626.25999999993
160 ; 4570845.311479968 ; 4.0237283624517417E8 ; 7.427752448731074E8 ; 6.1007792730870895E10 ; 56982.39999999993
161 ; 4569299.31213197 ; 4.023823615712007E8 ; 7.473460901845874E8 ; 6.1410165567116066E10 ; 57338.53999999993
162 ; 4565799.736387462 ; 4.0239185762246436E8 ; 7.519153894967194E8 ; 6.181254792868726E10 ; 57694.67999999993
163 ; 4564909.527840986 ; 4.024013241444018E8 ; 7.564811892331069E8 ; 6.221493978630973E10 ; 58050.81999999993
164 ; 4563880.190457951 ; 4.024107608847812E8 ; 7.610460987609478E8 ; 6.261734111045413E10 ; 58406.95999999993
165 ; 4560923.665852574 ; 4.0242016759365505E8 ; 7.656099789514058E8 ; 6.301975187133891E10 ; 58763.099999999926
166 ; 4561399.5942211 ; 4.02429544023314E8 ; 7.701709026172583E8 ; 6.342217203893257E10 ; 59119.239999999925
167 ; 4556340.983253817 ; 4.024388899282432E8 ; 7.747323022114794E8 ; 6.382460158295589E10 ; 59475.379999999925
168 ; 4556933.500506173 ; 4.024482050650797E8 ; 7.792886431947333E8 ; 6.422704047288413E10 ; 59831.519999999924
169 ; 4554836.656127262 ; 4.024574891925718E8 ; 7.838455766952394E8 ; 6.462948867794921E10 ; 60187.65999999992
170 ; 4552971.68646445 ; 4.0246674207154E8 ; 7.884004133513666E8 ; 6.5031946167141785E10 ; 60543.79999999992
171 ; 4550112.896348295 ; 4.0247596346483886E8 ; 7.929533850378311E8 ; 6.5434412909213326E10 ; 60899.93999999992
172 ; 4547938.6258934345 ; 4.024851531373211E8 ; 7.975034979341793E8 ; 6.583688887267816E10 ; 61256.07999999992
173 ; 4548318.01271189 ; 4.024943108558021E8 ; 8.020514365600728E8 ; 6.623937402581548E10 ; 61612.21999999992
174 ; 4550573.719322161 ; 4.025034363890267E8 ; 8.065997545727847E8 ; 6.664186833667129E10 ; 61968.35999999992
175 ; 4548410.555620241 ; 4.025125295076363E8 ; 8.111503282921069E8 ; 6.704437177306032E10 ; 62324.49999999992
176 ; 4549268.875483883 ; 4.0252158998413765E8 ; 8.156987388477271E8 ; 6.7446884302567955E10 ; 62680.63999999992
177 ; 4548058.032224931 ; 4.025306175928731E8 ; 8.202480077232109E8 ; 6.784940589255209E10 ; 63036.77999999992
