CSV File for the Network on Day 342
1 - Minute m 
2 - Power Consumed at minute m 
3 - Power Produced at minute m 
4 - Energy Consumed since the beginning of the day 
5 - Energy Produced since the beginning of the day 
6 - Energy Lost since the beginning of the day 
 
0 ; 3.867271716279026E7 ; 6.361448064756777E8 ; 0.0 ; 0.0 ; 0.0
1 ; 3.8709643489430025E7 ; 6.370556859670837E8 ; 3.867271716279026E7 ; 6.361448064756777E8 ; 0.0
2 ; 3.8753571339444794E7 ; 6.398199607801433E8 ; 7.738236065222028E7 ; 1.2732004924427614E9 ; 0.0
3 ; 3.880126609180069E7 ; 6.444376441200294E8 ; 1.1613593199166507E8 ; 1.9130204532229047E9 ; 0.0
4 ; 3.885780294997408E7 ; 6.509087477832913E8 ; 1.5493719808346575E8 ; 2.557458097342934E9 ; 0.0
5 ; 3.892138503036334E7 ; 6.592332821053351E8 ; 1.9379500103343984E8 ; 3.2083668451262255E9 ; 0.0
6 ; 3.902498332450373E7 ; 6.694112559137125E8 ; 2.327163860638032E8 ; 3.8676001272315607E9 ; 0.0
7 ; 3.9145823982247815E7 ; 6.814426764877043E8 ; 2.717413693883069E8 ; 4.537011383145273E9 ; 0.0
8 ; 3.933023815176754E7 ; 6.953275495246332E8 ; 3.1088719337055475E8 ; 5.2184540596329775E9 ; 0.0
9 ; 3.961660373874083E7 ; 7.110658791132683E8 ; 3.502174315223223E8 ; 5.913781609157611E9 ; 0.0
10 ; 4.0050933831302874E7 ; 7.286576677146157E8 ; 3.898340352610631E8 ; 6.624847488270879E9 ; 0.0
11 ; 4.074366539686495E7 ; 7.481029161503054E8 ; 4.29884969092366E8 ; 7.353505155985495E9 ; 0.0
12 ; 4.185197277641582E7 ; 7.694016235987074E8 ; 4.7062863448923093E8 ; 8.1016080721358E9 ; 0.0
13 ; 4.2919218542950064E7 ; 7.925537875988153E8 ; 5.1248060726564676E8 ; 8.871009695734509E9 ; 0.0
14 ; 4.304078386688647E7 ; 8.175594040618606E8 ; 5.553998258085968E8 ; 9.663563483333324E9 ; 0.0
15 ; 4.3095720626312904E7 ; 8.444184672905202E8 ; 5.984406096754833E8 ; 1.0481122887395185E10 ; 0.0
16 ; 4.3137856079396E7 ; 8.731309700055135E8 ; 6.415363303017962E8 ; 1.1325541354685705E10 ; 0.0
17 ; 4.319775434438778E7 ; 9.036969033792887E8 ; 6.846741863811922E8 ; 1.219867232469122E10 ; 0.0
18 ; 4.324229417722747E7 ; 9.361162570764395E8 ; 7.2787194072558E8 ; 1.3102369228070507E10 ; 0.0
19 ; 4.329648714672814E7 ; 9.70389019300417E8 ; 7.711142349028075E8 ; 1.4038485485146946E10 ; 0.0
20 ; 4.3341151804493435E7 ; 1.0065151768460479E9 ; 8.144107220495356E8 ; 1.5008874504447363E10 ; 0.0
21 ; 4.339642243717502E7 ; 1.0444947151573216E9 ; 8.57751873854029E8 ; 1.6015389681293411E10 ; 0.0
22 ; 4.3445522992982075E7 ; 1.0843276183898652E9 ; 9.011482962912041E8 ; 1.7059884396450733E10 ; 0.0
23 ; 4.3504630367761284E7 ; 1.1260138694775014E9 ; 9.445938192841861E8 ; 1.81442120148406E10 ; 0.0
24 ; 4.355797372151614E7 ; 1.1695534502022614E9 ; 9.880984496519474E8 ; 1.92702258843181E10 ; 0.0
25 ; 4.3608717636407845E7 ; 1.2070745866563168E9 ; 1.0316564233734635E9 ; 2.0439779334520363E10 ; 0.0
26 ; 4.3657587057396136E7 ; 1.2070985455383687E9 ; 1.0752651410098712E9 ; 2.164685392117668E10 ; 0.0
27 ; 4.370510205776765E7 ; 1.2071239213796387E9 ; 1.1189227280672674E9 ; 2.285395246671505E10 ; 0.0
28 ; 4.375353543938074E7 ; 1.207150692102021E9 ; 1.162627830125035E9 ; 2.406107638809469E10 ; 0.0
29 ; 4.380287125462129E7 ; 1.2071788348554373E9 ; 1.2063813655644157E9 ; 2.526822708019671E10 ; 0.0
30 ; 4.384108569817266E7 ; 1.207208326095529E9 ; 1.250184236819037E9 ; 2.6475405915052147E10 ; 0.0
31 ; 4.388959486997606E7 ; 1.207239141660647E9 ; 1.2940253225172095E9 ; 2.7682614241147675E10 ; 0.0
32 ; 4.394920512031808E7 ; 1.2072712568476598E9 ; 1.3379149173871856E9 ; 2.8889853382808323E10 ; 0.0
33 ; 4.39846076481074E7 ; 1.2073046464861515E9 ; 1.3818641225075037E9 ; 3.0097124639655983E10 ; 0.0
34 ; 4.403169880362906E7 ; 1.2073392850106227E9 ; 1.425848730155611E9 ; 3.1304429286142136E10 ; 0.0
35 ; 4.407434517601739E7 ; 1.2073751465303593E9 ; 1.4698804289592402E9 ; 3.251176857115276E10 ; 0.0
36 ; 4.41146945545039E7 ; 1.2074122048966742E9 ; 1.5139547741352575E9 ; 3.371914371768312E10 ; 0.0
37 ; 4.415397621752684E7 ; 1.207450433767287E9 ; 1.5580694686897614E9 ; 3.4926555922579796E10 ; 0.0
38 ; 4.419078624716343E7 ; 1.207489806667634E9 ; 1.6022234449072883E9 ; 3.6134006356347084E10 ; 0.0
39 ; 4.423065455129415E7 ; 1.2075302970489626E9 ; 1.6464142311544518E9 ; 3.734149616301472E10 ; 0.0
40 ; 4.426406579632859E7 ; 1.2075718783430967E9 ; 1.690644885705746E9 ; 3.854902646006368E10 ; 0.0
41 ; 4.429816080953292E7 ; 1.2076145240137963E9 ; 1.7349089515020745E9 ; 3.975659833840678E10 ; 0.0
42 ; 4.432792637122606E7 ; 1.2076582076046762E9 ; 1.7792071123116074E9 ; 4.096421286242057E10 ; 0.0
43 ; 4.435683771567007E7 ; 1.2077029027836766E9 ; 1.8235350386828334E9 ; 4.2171871070025246E10 ; 0.0
44 ; 4.4388402129975736E7 ; 1.2077485833841133E9 ; 1.8678918763985035E9 ; 4.337957397280892E10 ; 0.0
45 ; 4.44104396475595E7 ; 1.2077952234423513E9 ; 1.9122802785284793E9 ; 4.458732255619304E10 ; 0.0
46 ; 4.443617935224692E7 ; 1.2078427972321744E9 ; 1.9566907181760387E9 ; 4.579511777963539E10 ; 0.0
47 ; 4.446226391410556E7 ; 1.2078912792959466E9 ; 2.0011268975282857E9 ; 4.700296057686757E10 ; 0.0
48 ; 4.448015237172999E7 ; 1.2079406444726675E9 ; 2.0455891614423914E9 ; 4.821085185616351E10 ; 0.0
49 ; 4.450521436495905E7 ; 1.2079908679230392E9 ; 2.0900693138141215E9 ; 4.941879250063618E10 ; 0.0
50 ; 4.451682899382062E7 ; 1.2080419251516829E9 ; 2.1345745281790805E9 ; 5.062678336855922E10 ; 0.0
51 ; 4.4518044758548655E7 ; 1.2080937920266347E9 ; 2.179091357172901E9 ; 5.18348252937109E10 ; 0.0
52 ; 4.453828761682096E7 ; 1.2081464447962704E9 ; 2.22360940193145E9 ; 5.304291908573753E10 ; 0.0
53 ; 4.4558290003442526E7 ; 1.2081998601038008E9 ; 2.2681476895482707E9 ; 5.4251065530533806E10 ; 0.0
54 ; 4.45714232546679E7 ; 1.2082540149994931E9 ; 2.312705979551713E9 ; 5.54592653906376E10 ; 0.0
55 ; 4.4587938512380995E7 ; 1.208308886950759E9 ; 2.3572774028063807E9 ; 5.66675194056371E10 ; 0.0
56 ; 4.460106236279458E7 ; 1.2083644538502626E9 ; 2.401865341318762E9 ; 5.787582829258786E10 ; 0.0
57 ; 4.461246234925557E7 ; 1.2084206940221915E9 ; 2.446466403681556E9 ; 5.9084192746438126E10 ; 0.0
58 ; 4.462337370712089E7 ; 1.2084775862268312E9 ; 2.491078866030812E9 ; 6.029261344046032E10 ; 0.0
59 ; 4.463384370294485E7 ; 1.2085351096635804E9 ; 2.5357022397379327E9 ; 6.150109102668715E10 ; 0.0
60 ; 4.465150171880956E7 ; 1.208593243972541E9 ; 2.5803360834408774E9 ; 6.270962613635073E10 ; 0.0
61 ; 4.465301993346842E7 ; 1.2086519692348044E9 ; 2.624987585159687E9 ; 6.391821938032327E10 ; 0.0
62 ; 4.46651318003927E7 ; 1.2087112659715612E9 ; 2.6696406050931554E9 ; 6.5126871349558075E10 ; 0.0
63 ; 4.467293863574684E7 ; 1.208771115142142E9 ; 2.714305736893548E9 ; 6.633558261552963E10 ; 0.0
64 ; 4.46858390490869E7 ; 1.2088314981411057E9 ; 2.758978675529295E9 ; 6.7544353730671776E10 ; 0.0
65 ; 4.469876487616246E7 ; 1.208892396794467E9 ; 2.803664514578382E9 ; 6.875318522881288E10 ; 0.0
66 ; 4.470238555555116E7 ; 1.208953793355168E9 ; 2.8483632794545445E9 ; 6.996207762560735E10 ; 0.0
67 ; 4.471685316209667E7 ; 1.2090156704978766E9 ; 2.8930656650100956E9 ; 7.117103141896251E10 ; 0.0
68 ; 4.471741770908763E7 ; 1.209078011313199E9 ; 2.937782518172192E9 ; 7.238004708946039E10 ; 0.0
69 ; 4.4733476559312835E7 ; 1.20914079930138E9 ; 2.98249993588128E9 ; 7.358912510077359E10 ; 0.0
70 ; 4.473581992816936E7 ; 1.2092040183655665E9 ; 3.027233412440593E9 ; 7.479826590007497E10 ; 0.0
71 ; 4.474443638015051E7 ; 1.2092676528046951E9 ; 3.071969232368762E9 ; 7.600746991844054E10 ; 0.0
72 ; 4.4747584291550174E7 ; 1.2093316873060658E9 ; 3.1167136687489123E9 ; 7.721673757124524E10 ; 0.0
73 ; 4.475593621872643E7 ; 1.2093961069376616E9 ; 3.1614612530404625E9 ; 7.84260692585513E10 ; 0.0
74 ; 4.476167288930472E7 ; 1.209460897140256E9 ; 3.206217189259189E9 ; 7.963546536548897E10 ; 0.0
75 ; 4.4769266083317906E7 ; 1.209526043719362E9 ; 3.250978862148494E9 ; 8.084492626262923E10 ; 0.0
76 ; 4.47752867583626E7 ; 1.20959153283706E9 ; 3.2957481282318115E9 ; 8.205445230634859E10 ; 0.0
77 ; 4.477337975444823E7 ; 1.2096573510037427E9 ; 3.3405234149901743E9 ; 8.326404383918565E10 ; 0.0
78 ; 4.476189385253973E7 ; 1.2097234850698142E9 ; 3.3852967947446227E9 ; 8.447370119018939E10 ; 0.0
79 ; 4.475881421216233E7 ; 1.2097899222173674E9 ; 3.4300586885971622E9 ; 8.56834246752592E10 ; 0.0
80 ; 4.474728711967029E7 ; 1.2098566499518743E9 ; 3.4748175028093247E9 ; 8.689321459747656E10 ; 0.0
81 ; 4.473972326507146E7 ; 1.2099236560939064E9 ; 3.519564789928995E9 ; 8.810307124742844E10 ; 0.0
82 ; 4.472431515976718E7 ; 1.2099909287709126E9 ; 3.5643045131940665E9 ; 8.931299490352234E10 ; 0.0
83 ; 4.472135972348987E7 ; 1.21005845640907E9 ; 3.6090288283538337E9 ; 9.052298583229326E10 ; 0.0
84 ; 4.470699468709667E7 ; 1.210126227725223E9 ; 3.6537501880773234E9 ; 9.173304428870233E10 ; 0.0
85 ; 4.469916052017027E7 ; 1.2101942317189312E9 ; 3.69845718276442E9 ; 9.294317051642755E10 ; 0.0
86 ; 4.4680559484636076E7 ; 1.2102624576646295E9 ; 3.7431563432845902E9 ; 9.415336474814648E10 ; 0.0
87 ; 4.467288901750532E7 ; 1.21033089510392E9 ; 3.7878369027692266E9 ; 9.536362720581111E10 ; 0.0
88 ; 4.466101736073895E7 ; 1.2103995338379984E9 ; 3.8325097917867317E9 ; 9.657395810091504E10 ; 0.0
89 ; 4.464953483195568E7 ; 1.210468363920226E9 ; 3.8771708091474705E9 ; 9.778435763475304E10 ; 0.0
90 ; 4.463506022311881E7 ; 1.2105373756488507E9 ; 3.9218203439794264E9 ; 9.899482599867326E10 ; 0.0
91 ; 4.4621179351627186E7 ; 1.2106065595598843E9 ; 3.966455404202545E9 ; 1.0020536337432211E11 ; 0.0
92 ; 4.4607641893868715E7 ; 1.2106759064201403E9 ; 4.0110765835541725E9 ; 1.01415969933882E11 ; 0.0
93 ; 4.45913186093681E7 ; 1.2107454072204318E9 ; 4.0556842254480414E9 ; 1.0262664584030214E11 ; 0.0
94 ; 4.458067821508917E7 ; 1.2108150531689358E9 ; 4.10027554405741E9 ; 1.0383739124752257E11 ; 0.0
95 ; 4.456493551855931E7 ; 1.210884835684722E9 ; 4.144856222272499E9 ; 1.050482063006915E11 ; 0.0
96 ; 4.454204364107704E7 ; 1.210954746391449E9 ; 4.1894211577910585E9 ; 1.0625909113637622E11 ; 0.0
97 ; 4.453256326013735E7 ; 1.211024777111225E9 ; 4.2339632014321356E9 ; 1.0747004588276767E11 ; 0.0
98 ; 4.451526546737815E7 ; 1.2110949198586361E9 ; 4.278495764692273E9 ; 1.0868107065987889E11 ; 0.0
99 ; 4.449657248101022E7 ; 1.2111651668349378E9 ; 4.323011030159652E9 ; 1.0989216557973753E11 ; 0.0
100 ; 4.448087789892274E7 ; 1.211235510422411E9 ; 4.367507602640662E9 ; 1.1110333074657246E11 ; 0.0
101 ; 4.446431504822918E7 ; 1.211305943178878E9 ; 4.411988480539585E9 ; 1.1231456625699487E11 ; 0.0
102 ; 4.444656695751393E7 ; 1.211376457832378E9 ; 4.456452795587814E9 ; 1.1352587220017375E11 ; 0.0
103 ; 4.4423689628839225E7 ; 1.2114470472760012E9 ; 4.500899362545328E9 ; 1.1473724865800613E11 ; 0.0
104 ; 4.4406063643287584E7 ; 1.211517704562874E9 ; 4.545323052174168E9 ; 1.1594869570528214E11 ; 0.0
105 ; 4.438673902189564E7 ; 1.211588422901298E9 ; 4.589729115817455E9 ; 1.1716021340984502E11 ; 0.0
106 ; 4.437127547255786E7 ; 1.211659195650036E9 ; 4.634115854839351E9 ; 1.183718018327463E11 ; 0.0
107 ; 4.434728571870223E7 ; 1.2117300163137448E9 ; 4.678487130311909E9 ; 1.1958346102839635E11 ; 0.0
108 ; 4.432608447568792E7 ; 1.2118008785385473E9 ; 4.722834416030611E9 ; 1.207951910447101E11 ; 0.0
109 ; 4.4310922910681404E7 ; 1.2118717761077464E9 ; 4.767160500506299E9 ; 1.2200699192324864E11 ; 0.0
110 ; 4.4288507687963E7 ; 1.2119427029376721E9 ; 4.811471423416981E9 ; 1.2321886369935638E11 ; 0.0
111 ; 4.425722537356154E7 ; 1.2120136530736623E9 ; 4.855759931104943E9 ; 1.2443080640229405E11 ; 0.0
112 ; 4.423941512397004E7 ; 1.2120846206861687E9 ; 4.900017156478505E9 ; 1.2564282005536772E11 ; 0.0
113 ; 4.421772923435482E7 ; 1.212155600066994E9 ; 4.944256571602475E9 ; 1.268549046760539E11 ; 0.0
114 ; 4.4194447974163756E7 ; 1.2122265856256433E9 ; 4.98847430083683E9 ; 1.280670602761209E11 ; 0.0
115 ; 4.417674739282666E7 ; 1.2122975718858008E9 ; 5.032668748810994E9 ; 1.2927928686174654E11 ; 0.0
116 ; 4.414755241393773E7 ; 1.2123685534819162E9 ; 5.076845496203821E9 ; 1.3049158443363234E11 ; 0.0
117 ; 4.412490577578871E7 ; 1.2124395251559052E9 ; 5.120993048617759E9 ; 1.3170395298711426E11 ; 0.0
118 ; 4.4098418795655474E7 ; 1.2125104817539577E9 ; 5.165117954393547E9 ; 1.3291639251227016E11 ; 0.0
119 ; 4.407473806642959E7 ; 1.2125814182234519E9 ; 5.209216373189202E9 ; 1.3412890299402411E11 ; 0.0
120 ; 4.404430427191228E7 ; 1.2126523296099675E9 ; 5.253291111255631E9 ; 1.3534148441224756E11 ; 0.0
121 ; 4.402463704118413E7 ; 1.2127232110544014E9 ; 5.297335415527544E9 ; 1.3655413674185753E11 ; 0.0
122 ; 4.3996418980314665E7 ; 1.2127940577901762E9 ; 5.341360052568728E9 ; 1.3776685995291193E11 ; 0.0
123 ; 4.3972378186791286E7 ; 1.212864865140541E9 ; 5.385356471549043E9 ; 1.389796540107021E11 ; 0.0
124 ; 4.39421180296039E7 ; 1.212935628515965E9 ; 5.429328849735834E9 ; 1.4019251887584262E11 ; 0.0
125 ; 4.392487136273903E7 ; 1.2130063434116137E9 ; 5.473270967765438E9 ; 1.4140545450435858E11 ; 0.0
126 ; 4.38937996255337E7 ; 1.2130770054049118E9 ; 5.517195839128177E9 ; 1.426184608477702E11 ; 0.0
127 ; 4.3862114514151245E7 ; 1.213147610153187E9 ; 5.561089638753711E9 ; 1.438315378531751E11 ; 0.0
128 ; 4.3836059058515824E7 ; 1.2132181533913903E9 ; 5.604951753267862E9 ; 1.450446854633283E11 ; 0.0
129 ; 4.381173689507123E7 ; 1.2132886309298954E9 ; 5.648787812326378E9 ; 1.462579036167197E11 ; 0.0
130 ; 4.376977253316504E7 ; 1.2133590386523685E9 ; 5.692599549221449E9 ; 1.474711922476496E11 ; 0.0
131 ; 4.372509280027617E7 ; 1.2134293725137103E9 ; 5.736369321754614E9 ; 1.4868455128630197E11 ; 0.0
132 ; 4.3683322463618256E7 ; 1.213499628538067E9 ; 5.78009441455489E9 ; 1.4989798065881567E11 ; 0.0
133 ; 4.363743691667542E7 ; 1.2135698028169072E9 ; 5.823777737018508E9 ; 1.5111148028735373E11 ; 0.0
134 ; 4.359978523891406E7 ; 1.2136398915071614E9 ; 5.867415173935184E9 ; 1.5232505009017062E11 ; 0.0
135 ; 4.3551575225543246E7 ; 1.2137098908294263E9 ; 5.911014959174098E9 ; 1.535386899816778E11 ; 0.0
136 ; 4.3510626014330976E7 ; 1.2137797970662255E9 ; 5.954566534399641E9 ; 1.5475239987250723E11 ; 0.0
137 ; 4.346634513530306E7 ; 1.2138496065603309E9 ; 5.998077160413972E9 ; 1.5596617966957346E11 ; 0.0
138 ; 4.342379495739961E7 ; 1.2139193157131362E9 ; 6.041543505549275E9 ; 1.571800292761338E11 ; 0.0
139 ; 4.337263043639868E7 ; 1.213988920983089E9 ; 6.084967300506675E9 ; 1.5839394859184692E11 ; 0.0
140 ; 4.3323540029439285E7 ; 1.2140584188841705E9 ; 6.128339930943073E9 ; 1.5960793751283002E11 ; 0.0
141 ; 4.327749955816009E7 ; 1.214127805984428E9 ; 6.171663470972512E9 ; 1.6082199593171417E11 ; 0.0
142 ; 4.3233589061148494E7 ; 1.2141970789045534E9 ; 6.214940970530672E9 ; 1.620361237376986E11 ; 0.0
143 ; 4.318429025276372E7 ; 1.214266234316512E9 ; 6.258174559591821E9 ; 1.6325032081660315E11 ; 0.0
144 ; 4.3141365514991865E7 ; 1.2143352689422138E9 ; 6.301358849844584E9 ; 1.6446458705091965E11 ; 0.0
145 ; 4.3104092169559926E7 ; 1.2144041795522277E9 ; 6.344500215359576E9 ; 1.6567892231986185E11 ; 0.0
146 ; 4.308055107923554E7 ; 1.214472962964542E9 ; 6.387604307529136E9 ; 1.6689332649941406E11 ; 0.0
147 ; 4.304549370063649E7 ; 1.21454161604336E9 ; 6.430684858608371E9 ; 1.681077994623786E11 ; 0.0
148 ; 4.301714023630922E7 ; 1.2146101356979394E9 ; 6.473730352309008E9 ; 1.6932234107842197E11 ; 0.0
149 ; 4.297982620842641E7 ; 1.2146785188814669E9 ; 6.516747492545317E9 ; 1.705369512141199E11 ; 0.0
150 ; 4.294970394925926E7 ; 1.214746762589971E9 ; 6.559727318753743E9 ; 1.7175162973300137E11 ; 0.0
151 ; 4.292553905504711E7 ; 1.214814863861269E9 ; 6.602677022703002E9 ; 1.7296637649559134E11 ; 0.0
152 ; 4.288900276203412E7 ; 1.2148828197739496E9 ; 6.645602561758049E9 ; 1.741811913594526E11 ; 0.0
153 ; 4.285512826223242E7 ; 1.2149506274463851E9 ; 6.688491564520083E9 ; 1.7539607417922656E11 ; 0.0
154 ; 4.2824216098786786E7 ; 1.215018284035781E9 ; 6.731346692782316E9 ; 1.7661102480667294E11 ; 0.0
155 ; 4.279335715360235E7 ; 1.2150857867372496E9 ; 6.774170908881103E9 ; 1.778260430907087E11 ; 0.0
156 ; 4.276567215639891E7 ; 1.2151531327829208E9 ; 6.816964266034705E9 ; 1.7904112887744595E11 ; 0.0
157 ; 4.273031505066008E7 ; 1.2152203194410734E9 ; 6.859729938191104E9 ; 1.8025628201022888E11 ; 0.0
158 ; 4.269125480789204E7 ; 1.2152873440153017E9 ; 6.902460253241764E9 ; 1.8147150232966995E11 ; 0.0
159 ; 4.266081454977113E7 ; 1.2153542038437028E9 ; 6.945151508049656E9 ; 1.8268678967368524E11 ; 0.0
160 ; 4.2629955534417294E7 ; 1.2154208962980943E9 ; 6.987812322599427E9 ; 1.8390214387752893E11 ; 0.0
161 ; 4.259572554599351E7 ; 1.2154874187832532E9 ; 7.030442278133844E9 ; 1.8511756477382703E11 ; 0.0
162 ; 4.2563168353102945E7 ; 1.2155537687361817E9 ; 7.073038003679838E9 ; 1.863330521926103E11 ; 0.0
163 ; 4.252037244470817E7 ; 1.2156199436253958E9 ; 7.115601172032941E9 ; 1.8754860596134647E11 ; 0.0
164 ; 4.249736182998711E7 ; 1.215685940950233E9 ; 7.158121544477649E9 ; 1.8876422590497186E11 ; 0.0
165 ; 4.245952706401523E7 ; 1.2157517582401888E9 ; 7.200618906307636E9 ; 1.899799118459221E11 ; 0.0
166 ; 4.242332419976383E7 ; 1.2158173930542665E9 ; 7.243078433371652E9 ; 1.911956636041623E11 ; 0.0
167 ; 4.23921107867984E7 ; 1.2158828429803517E9 ; 7.285501757571416E9 ; 1.9241148099721655E11 ; 0.0
168 ; 4.235719420529535E7 ; 1.2159481056346061E9 ; 7.327893868358214E9 ; 1.936273638401969E11 ; 0.0
169 ; 4.232821627899942E7 ; 1.2160131786608796E9 ; 7.37025106256351E9 ; 1.948433119458315E11 ; 0.0
170 ; 4.228029824823603E7 ; 1.2160780597301397E9 ; 7.412579278842509E9 ; 1.960593251244924E11 ; 0.0
171 ; 4.225151829903005E7 ; 1.2161427465399208E9 ; 7.454859577090745E9 ; 1.9727540318422253E11 ; 0.0
172 ; 4.221022170660254E7 ; 1.2162072368137884E9 ; 7.497111095389775E9 ; 1.9849154593076245E11 ; 0.0
173 ; 4.218441767776364E7 ; 1.2162715283008223E9 ; 7.539321317096377E9 ; 1.9970775316757623E11 ; 0.0
174 ; 4.215929433322302E7 ; 1.2163356187751124E9 ; 7.581505734774141E9 ; 2.0092402469587704E11 ; 0.0
175 ; 4.2142163012636915E7 ; 1.2163995060352743E9 ; 7.623665029107365E9 ; 2.0214036031465216E11 ; 0.0
176 ; 4.212476223456385E7 ; 1.216463187903976E9 ; 7.665807192120002E9 ; 2.0335675982068744E11 ; 0.0
177 ; 4.2105140667752296E7 ; 1.2165266622274814E9 ; 7.707931954354566E9 ; 2.045732230085914E11 ; 0.0
178 ; 4.208025019504848E7 ; 1.2165899268752067E9 ; 7.750037095022318E9 ; 2.0578974967081888E11 ; 0.0
179 ; 4.20594270987071E7 ; 1.2166529797392898E9 ; 7.792117345217366E9 ; 2.070063395976941E11 ; 0.0
180 ; 4.203941716987345E7 ; 1.2167158187341757E9 ; 7.834176772316073E9 ; 2.0822299257743338E11 ; 0.0
181 ; 4.201101218424429E7 ; 1.2167784417962112E9 ; 7.876216189485947E9 ; 2.0943970839616754E11 ; 0.0
182 ; 4.1991505237311654E7 ; 1.2168408468832526E9 ; 7.918227201670191E9 ; 2.1065648683796375E11 ; 0.0
183 ; 4.197347025308303E7 ; 1.2169030319742873E9 ; 7.960218706907502E9 ; 2.11873327684847E11 ; 0.0
184 ; 4.194980072076461E7 ; 1.2169649950690646E9 ; 8.002192177160585E9 ; 2.1309023071682126E11 ; 0.0
185 ; 4.1923415664900705E7 ; 1.2170267341877382E9 ; 8.04414197788135E9 ; 2.1430719571189032E11 ; 0.0
186 ; 4.191467313487945E7 ; 1.2170882473705204E9 ; 8.08606539354625E9 ; 2.1552422244607806E11 ; 0.0
187 ; 4.188430519040254E7 ; 1.2171495326773453E9 ; 8.127980066681129E9 ; 2.1674131069344858E11 ; 0.0
188 ; 4.1863583754404284E7 ; 1.2172105881875434E9 ; 8.169864371871532E9 ; 2.1795846022612592E11 ; 0.0
189 ; 4.183748126043842E7 ; 1.2172714119995246E9 ; 8.2117279556259365E9 ; 2.1917567081431345E11 ; 0.0
190 ; 4.1818212579627976E7 ; 1.2173320022304711E9 ; 8.253565436886374E9 ; 2.2039294222631296E11 ; 0.0
191 ; 4.179941167839262E7 ; 1.217392357016041E9 ; 8.295383649466002E9 ; 2.2161027422854343E11 ; 0.0
192 ; 4.177482780053372E7 ; 1.217452474510079E9 ; 8.337183061144395E9 ; 2.2282766658555948E11 ; 0.0
193 ; 4.176292569076595E7 ; 1.2175123528843334E9 ; 8.378957888944928E9 ; 2.2404511906006955E11 ; 0.0
194 ; 4.1736353555616036E7 ; 1.2175719903281891E9 ; 8.4207208146356945E9 ; 2.252626314129539E11 ; 0.0
195 ; 4.171196854681979E7 ; 1.2176313850483994E9 ; 8.462457168191311E9 ; 2.2648020340328207E11 ; 0.0
196 ; 4.168913819270877E7 ; 1.2176905352688313E9 ; 8.504169136738131E9 ; 2.2769783478833047E11 ; 0.0
