CSV File for the Network on Day 207
1 - Minute m 
2 - Power Consumed at minute m 
3 - Power Produced at minute m 
4 - Energy Consumed since the beginning of the day 
5 - Energy Produced since the beginning of the day 
6 - Energy Lost since the beginning of the day 
 
0 ; 2685113.492333873 ; 6.331581137610883E8 ; 0.0 ; 0.0 ; 0.0
1 ; 2730660.9930997686 ; 6.34064498087204E8 ; 2685113.492333873 ; 6.331581137610883E8 ; 0.0
2 ; 2774667.597430875 ; 6.368246368799227E8 ; 5415774.485433642 ; 1.2672226118482924E9 ; 0.0
3 ; 2823576.1001200974 ; 6.414385786072359E8 ; 8190442.082864517 ; 1.9040472487282152E9 ; 0.0
4 ; 2889570.4242021237 ; 6.479063677187556E8 ; 1.1014018182984615E7 ; 2.545485827335451E9 ; 0.0
5 ; 2965316.390875048 ; 6.562280440814543E8 ; 1.3903588607186738E7 ; 3.193392195054207E9 ; 0.0
6 ; 3060178.536119663 ; 6.664036424485716E8 ; 1.6868904998061787E7 ; 3.849620239135661E9 ; 0.0
7 ; 3192435.484469045 ; 6.784331919771198E8 ; 1.992908353418145E7 ; 4.516023881584232E9 ; 0.0
8 ; 3384746.769703437 ; 6.923167158089153E8 ; 2.3121519018650495E7 ; 5.194457073561352E9 ; 0.0
9 ; 3672643.64854322 ; 7.080542307287639E8 ; 2.650626578835393E7 ; 5.886773789370267E9 ; 0.0
10 ; 4116640.2208620207 ; 7.256457469113725E8 ; 3.017890943689715E7 ; 6.5948280200990305E9 ; 0.0
11 ; 4801722.224264754 ; 7.450912677658012E8 ; 3.4295549657759175E7 ; 7.320473767010403E9 ; 0.0
12 ; 5921336.394338282 ; 7.663907898829893E8 ; 3.909727188202393E7 ; 8.065565034776204E9 ; 0.0
13 ; 6986795.447777171 ; 7.895443030882308E8 ; 4.501860827636221E7 ; 8.831955824659193E9 ; 0.0
14 ; 7122995.79543088 ; 8.145517905967197E8 ; 5.200540372413938E7 ; 9.621500127747423E9 ; 0.0
15 ; 7177254.782718702 ; 8.414132292666395E8 ; 5.912839951957026E7 ; 1.0436051918344143E10 ; 0.0
16 ; 7231037.6400346365 ; 8.701285899409777E8 ; 6.6305654302288964E7 ; 1.1277465147610783E10 ; 0.0
17 ; 7290105.414152797 ; 9.006978378664953E8 ; 7.35366919423236E7 ; 1.214759373755176E10 ; 0.0
18 ; 7345231.263131531 ; 9.331209331762192E8 ; 8.08267973564764E7 ; 1.3048291575418255E10 ; 0.0
19 ; 7397276.406642414 ; 9.673978314205374E8 ; 8.817202861960793E7 ; 1.3981412508594475E10 ; 0.0
20 ; 7459390.675599645 ; 1.0035284841314584E9 ; 9.556930502625033E7 ; 1.4948810340015013E10 ; 0.0
21 ; 7518246.10949897 ; 1.0415128394048315E9 ; 1.0302869570184998E8 ; 1.5952338824146471E10 ; 0.0
22 ; 7579685.576952762 ; 1.0813508424861937E9 ; 1.1054694181134894E8 ; 1.6993851663551302E10 ; 0.0
23 ; 7633096.138739032 ; 1.1230424363473063E9 ; 1.181266273883017E8 ; 1.8075202506037495E10 ; 0.0
24 ; 7684886.464998068 ; 1.1665875622421994E9 ; 1.2575972352704073E8 ; 1.91982449423848E10 ; 0.0
25 ; 7750165.871119935 ; 1.20411440562263E9 ; 1.334446099920388E8 ; 2.0364832504627E10 ; 0.0
26 ; 7802771.261732041 ; 1.204144192849001E9 ; 1.4119477586315873E8 ; 2.156894691024963E10 ; 0.0
27 ; 7860774.528535107 ; 1.2041754787874103E9 ; 1.4899754712489077E8 ; 2.2773091103098633E10 ; 0.0
28 ; 7919748.63133071 ; 1.2042082026928017E9 ; 1.5685832165342587E8 ; 2.3977266581886044E10 ; 0.0
29 ; 7974040.773579942 ; 1.204242304324335E9 ; 1.6477807028475657E8 ; 2.5181474784578846E10 ; 0.0
30 ; 8028410.148436513 ; 1.2042777242546248E9 ; 1.7275211105833653E8 ; 2.6385717088903183E10 ; 0.0
31 ; 8082777.902090061 ; 1.204314404133463E9 ; 1.8078052120677304E8 ; 2.7589994813157806E10 ; 0.0
32 ; 8135230.29671135 ; 1.2043522869081154E9 ; 1.8886329910886312E8 ; 2.8794309217291267E10 ; 0.0
33 ; 8187233.829669122 ; 1.2043913170029628E9 ; 1.9699852940557447E8 ; 2.9998661504199383E10 ; 0.0
34 ; 8240800.750775887 ; 1.204431440461724E9 ; 2.051857632352436E8 ; 3.1203052821202347E10 ; 0.0
35 ; 8290978.426975055 ; 1.2044726050557778E9 ; 2.1342656398601946E8 ; 3.240748426166407E10 ; 0.0
36 ; 8337256.4408250395 ; 1.204514760362206E9 ; 2.217175424129945E8 ; 3.361195686671985E10 ; 0.0
37 ; 8386753.9719817825 ; 1.2045578578151708E9 ; 2.3005479885381955E8 ; 3.4816471627082054E10 ; 0.0
38 ; 8429744.053465687 ; 1.2046018507341247E9 ; 2.3844155282580134E8 ; 3.6021029484897224E10 ; 0.0
39 ; 8476687.364493083 ; 1.2046466943321586E9 ; 2.4687129687926704E8 ; 3.722563133563135E10 ; 0.0
40 ; 8517890.846433418 ; 1.2046923457075748E9 ; 2.553479842437601E8 ; 3.843027802996351E10 ; 0.0
41 ; 8561249.505629232 ; 1.2047387638214939E9 ; 2.6386587509019354E8 ; 3.963497037567108E10 ; 0.0
42 ; 8602291.741994059 ; 1.204785909464038E9 ; 2.7242712459582275E8 ; 4.083970913949258E10 ; 0.0
43 ; 8638719.991217453 ; 1.204833745211346E9 ; 2.8102941633781683E8 ; 4.204449504895661E10 ; 0.0
44 ; 8674377.712586418 ; 1.2048822353754141E9 ; 2.8966813632903427E8 ; 4.324932879416796E10 ; 0.0
45 ; 8709864.279407121 ; 1.204931345948492E9 ; 2.983425140416207E8 ; 4.445421102954337E10 ; 0.0
46 ; 8747743.120650593 ; 1.2049810445435214E9 ; 3.070523783210278E8 ; 4.565914237549187E10 ; 0.0
47 ; 8780607.530482631 ; 1.2050313003318915E9 ; 3.158001214416784E8 ; 4.6864123420035385E10 ; 0.0
48 ; 8805353.214659056 ; 1.2050820839795825E9 ; 3.2458072897216105E8 ; 4.806915472036728E10 ; 0.0
49 ; 8833742.229393696 ; 1.2051333675825865E9 ; 3.333860821868201E8 ; 4.927423680434686E10 ; 0.0
50 ; 8856143.619017517 ; 1.2051851246023479E9 ; 3.422198244162138E8 ; 5.047937017192945E10 ; 0.0
51 ; 8888279.402397431 ; 1.2052373298018172E9 ; 3.5107596803523135E8 ; 5.16845552965318E10 ; 0.0
52 ; 8901949.430076474 ; 1.2052899591826E9 ; 3.599642474376288E8 ; 5.288979262633362E10 ; 0.0
53 ; 8932466.7551847 ; 1.2053429899235795E9 ; 3.688661968677053E8 ; 5.409508258551622E10 ; 0.0
54 ; 8951890.267187718 ; 1.2053964003212986E9 ; 3.7779866362289E8 ; 5.53004255754398E10 ; 0.0
55 ; 8978744.196819331 ; 1.2054501697323208E9 ; 3.867505538900777E8 ; 5.650582197576109E10 ; 0.0
56 ; 8997108.427429648 ; 1.2055042785177202E9 ; 3.95729298086897E8 ; 5.7711272145493416E10 ; 0.0
57 ; 9021497.28942465 ; 1.2055587079898047E9 ; 4.047264065143267E8 ; 5.891677642401114E10 ; 0.0
58 ; 9044474.907842467 ; 1.20561344036113E9 ; 4.1374790380375135E8 ; 6.0122335132000946E10 ; 0.0
59 ; 9071807.364968399 ; 1.2056684586958284E9 ; 4.227923787115938E8 ; 6.1327948572362076E10 ; 0.0
60 ; 9086122.422598038 ; 1.205723746863248E9 ; 4.318641860765622E8 ; 6.253361703105791E10 ; 0.0
61 ; 9110699.699654013 ; 1.205779289493878E9 ; 4.409503084991603E8 ; 6.373934077792116E10 ; 0.0
62 ; 9130353.813813128 ; 1.2058350719375114E9 ; 4.500610081988143E8 ; 6.494512006741504E10 ; 0.0
63 ; 9148145.46926602 ; 1.205891080223591E9 ; 4.591913620126274E8 ; 6.6150955139352554E10 ; 0.0
64 ; 9177654.927896483 ; 1.2059473010236704E9 ; 4.683395074818934E8 ; 6.735684621957615E10 ; 0.0
65 ; 9189720.973290754 ; 1.206003721615909E9 ; 4.775171624097899E8 ; 6.856279352059982E10 ; 0.0
66 ; 9217478.974321019 ; 1.20606032985153E9 ; 4.8670688338308066E8 ; 6.976879724221573E10 ; 0.0
67 ; 9233622.008687621 ; 1.206117114123148E9 ; 4.9592436235740167E8 ; 7.097485757206726E10 ; 0.0
68 ; 9249719.939619597 ; 1.2061740633348856E9 ; 5.051579843660893E8 ; 7.218097468619041E10 ; 0.0
69 ; 9268078.994076595 ; 1.2062311668741956E9 ; 5.144077043057089E8 ; 7.33871487495253E10 ; 0.0
70 ; 9290008.278442377 ; 1.2062884145852966E9 ; 5.236757832997855E8 ; 7.459337991639949E10 ; 0.0
71 ; 9312200.57596989 ; 1.206345796744145E9 ; 5.329657915782279E8 ; 7.579966833098479E10 ; 0.0
72 ; 9324347.589939227 ; 1.2064033040348568E9 ; 5.422779921541978E8 ; 7.700601412772893E10 ; 0.0
73 ; 9344620.617140267 ; 1.2064609275275056E9 ; 5.51602339744137E8 ; 7.821241743176378E10 ; 0.0
74 ; 9357702.41293923 ; 1.2065186586572127E9 ; 5.609469603612773E8 ; 7.941887835929129E10 ; 0.0
75 ; 9377680.507843252 ; 1.2065764892044616E9 ; 5.703046627742165E8 ; 8.06253970179485E10 ; 0.0
76 ; 9398326.926812654 ; 1.2066344112765663E9 ; 5.796823432820598E8 ; 8.183197350715297E10 ; 0.0
77 ; 9406697.479395524 ; 1.2066924172902217E9 ; 5.890806702088724E8 ; 8.303860791842953E10 ; 0.0
78 ; 9417403.766227879 ; 1.2067504999550774E9 ; 5.98487367688268E8 ; 8.424530033571976E10 ; 0.0
79 ; 9412631.22235433 ; 1.2068086522582717E9 ; 6.079047714544958E8 ; 8.545205083567484E10 ; 0.0
80 ; 9424301.69739407 ; 1.2068668674498677E9 ; 6.173174026768501E8 ; 8.66588594879331E10 ; 0.0
81 ; 9424082.94102485 ; 1.20692513902914E9 ; 6.267417043742441E8 ; 8.786572635538298E10 ; 0.0
82 ; 9428720.93947733 ; 1.2069834607316575E9 ; 6.36165787315269E8 ; 8.907265149441212E10 ; 0.0
83 ; 9432304.592473041 ; 1.207041826517115E9 ; 6.455945082547463E8 ; 9.027963495514378E10 ; 0.0
84 ; 9435252.549741054 ; 1.2071002305578713E9 ; 6.550268128472193E8 ; 9.14866767816609E10 ; 0.0
85 ; 9434396.684307955 ; 1.2071586672281432E9 ; 6.644620653969604E8 ; 9.269377701221878E10 ; 0.0
86 ; 9433401.849081881 ; 1.2072171310938244E9 ; 6.738964620812683E8 ; 9.390093567944693E10 ; 0.0
87 ; 9444953.283809487 ; 1.2072756169028852E9 ; 6.833298639303502E8 ; 9.510815281054076E10 ; 0.0
88 ; 9439978.88483603 ; 1.2073341195763175E9 ; 6.927748172141597E8 ; 9.631542842744363E10 ; 0.0
89 ; 9441055.568498818 ; 1.2073926341995974E9 ; 7.022147960989958E8 ; 9.752276254701996E10 ; 0.0
90 ; 9438459.592624566 ; 1.207451156014626E9 ; 7.116558516674947E8 ; 9.873015518121956E10 ; 0.0
91 ; 9441709.237948628 ; 1.207509680412125E9 ; 7.210943112601192E8 ; 9.993760633723419E10 ; 0.0
92 ; 9438280.609468281 ; 1.20756820292446E9 ; 7.305360204980679E8 ; 1.0114511601764632E11 ; 0.0
93 ; 9439339.813889248 ; 1.2076267192188573E9 ; 7.399743011075361E8 ; 1.0235268422057077E11 ; 0.0
94 ; 9435682.173182292 ; 1.2076852250910041E9 ; 7.494136409214253E8 ; 1.0356031093978963E11 ; 0.0
95 ; 9436003.024476625 ; 1.207743716458995E9 ; 7.588493230946076E8 ; 1.0476799616488063E11 ; 0.0
96 ; 9432744.381574202 ; 1.2078021893576143E9 ; 7.682853261190842E8 ; 1.0597573988133963E11 ; 0.0
97 ; 9434950.989566687 ; 1.2078606399329278E9 ; 7.777180705006584E8 ; 1.0718354207069725E11 ; 0.0
98 ; 9435116.091000322 ; 1.2079190644371698E9 ; 7.871530214902251E8 ; 1.0839140271063017E11 ; 0.0
99 ; 9423473.301859112 ; 1.2079774592239032E9 ; 7.965881375812254E8 ; 1.0959932177506734E11 ; 0.0
100 ; 9429250.104428457 ; 1.2080358207434428E9 ; 8.060116108830845E8 ; 1.1080729923429124E11 ; 0.0
101 ; 9426783.194572438 ; 1.2080941455385182E9 ; 8.15440860987513E8 ; 1.1201533505503468E11 ; 0.0
102 ; 9420983.606600173 ; 1.2081524302401714E9 ; 8.248676441820854E8 ; 1.132234292005732E11 ; 0.0
103 ; 9418797.831480026 ; 1.2082106715638678E9 ; 8.342886277886856E8 ; 1.1443158163081337E11 ; 0.0
104 ; 9413746.412641557 ; 1.20826886630581E9 ; 8.437074256201656E8 ; 1.1563979230237724E11 ; 0.0
105 ; 9411059.552541643 ; 1.2083270113394468E9 ; 8.531211720328071E8 ; 1.1684806116868306E11 ; 0.0
106 ; 9402869.904295303 ; 1.208385103612162E9 ; 8.625322315853487E8 ; 1.180563881800225E11 ; 0.0
107 ; 9396297.906554116 ; 1.2084431401421325E9 ; 8.71935101489644E8 ; 1.1926477328363467E11 ; 0.0
108 ; 9398185.40768747 ; 1.208501118015348E9 ; 8.813313993961982E8 ; 1.2047321642377681E11 ; 0.0
109 ; 9390398.905961921 ; 1.2085590343827822E9 ; 8.907295848038856E8 ; 1.2168171754179216E11 ; 0.0
110 ; 9387203.108487066 ; 1.2086168864577096E9 ; 9.001199837098475E8 ; 1.2289027657617494E11 ; 0.0
111 ; 9378030.619910106 ; 1.2086746715131524E9 ; 9.095071868183345E8 ; 1.2409889346263264E11 ; 0.0
112 ; 9376390.771911759 ; 1.2087323868794594E9 ; 9.188852174382446E8 ; 1.253075681341458E11 ; 0.0
113 ; 9367893.341610143 ; 1.2087900299420037E9 ; 9.282616082101563E8 ; 1.2651630052102525E11 ; 0.0
114 ; 9364981.307685586 ; 1.2088475981389937E9 ; 9.376295015517665E8 ; 1.2772509055096725E11 ; 0.0
115 ; 9363756.480223902 ; 1.2089050889593923E9 ; 9.469944828594521E8 ; 1.2893393814910625E11 ; 0.0
116 ; 9347755.050065987 ; 1.208962499940938E9 ; 9.56358239339676E8 ; 1.3014284323806564E11 ; 0.0
117 ; 9341658.800867688 ; 1.2090198286682615E9 ; 9.65705994389742E8 ; 1.3135180573800658E11 ; 0.0
118 ; 9337963.90921516 ; 1.2090770727710924E9 ; 9.750476531906097E8 ; 1.3256082556667484E11 ; 0.0
119 ; 9328520.126760215 ; 1.209134229922555E9 ; 9.843856170998249E8 ; 1.3376990263944592E11 ; 0.0
120 ; 9318930.438643722 ; 1.209191297837542E9 ; 9.937141372265851E8 ; 1.3497903686936848E11 ; 0.0
121 ; 9308527.221048072 ; 1.2092482742711673E9 ; 1.0030330676652288E9 ; 1.3618822816720602E11 ; 0.0
122 ; 9299093.491988232 ; 1.2093051570172904E9 ; 1.012341594886277E9 ; 1.3739747644147719E11 ; 0.0
123 ; 9288856.316935513 ; 1.209361943907113E9 ; 1.0216406883782651E9 ; 1.3860678159849448E11 ; 0.0
124 ; 9279001.24259082 ; 1.2094186328078365E9 ; 1.0309295446952007E9 ; 1.3981614354240158E11 ; 0.0
125 ; 9275447.957593938 ; 1.2094752216213858E9 ; 1.0402085459377915E9 ; 1.410255621752094E11 ; 0.0
126 ; 9260080.52938816 ; 1.2095317082831903E9 ; 1.0494839938953854E9 ; 1.422350373968308E11 ; 0.0
127 ; 9247937.121031735 ; 1.2095880907610202E9 ; 1.0587440744247736E9 ; 1.43444569105114E11 ; 0.0
128 ; 9242936.496293634 ; 1.2096443670538762E9 ; 1.0679920115458053E9 ; 1.4465415719587503E11 ; 0.0
129 ; 9229857.669891378 ; 1.2097005351909318E9 ; 1.077234948042099E9 ; 1.458638015629289E11 ; 0.0
130 ; 9210622.504588034 ; 1.2097565932305193E9 ; 1.0864648057119904E9 ; 1.470735020981198E11 ; 0.0
131 ; 9190775.634195643 ; 1.2098125392591653E9 ; 1.0956754282165785E9 ; 1.4828325869135034E11 ; 0.0
132 ; 9163154.83693491 ; 1.2098683713906653E9 ; 1.104866203850774E9 ; 1.494930712306095E11 ; 0.0
133 ; 9136165.861615736 ; 1.209924087765203E9 ; 1.1140293586877089E9 ; 1.5070293960200015E11 ; 0.0
134 ; 9108157.450773463 ; 1.2099796865485067E9 ; 1.1231655245493245E9 ; 1.5191286368976535E11 ; 0.0
135 ; 9086952.598237729 ; 1.2100351659310431E9 ; 1.132273682000098E9 ; 1.5312284337631384E11 ; 0.0
136 ; 9062520.306118412 ; 1.2100905241272454E9 ; 1.1413606345983357E9 ; 1.5433287854224487E11 ; 0.0
137 ; 9037502.443187512 ; 1.210145759374776E9 ; 1.1504231549044542E9 ; 1.5554296906637213E11 ; 0.0
138 ; 9008322.047762781 ; 1.2102008699338217E9 ; 1.1594606573476417E9 ; 1.5675311482574692E11 ; 0.0
139 ; 8984477.221634671 ; 1.210255854086418E9 ; 1.1684689793954046E9 ; 1.5796331569568073E11 ; 0.0
140 ; 8956895.23717634 ; 1.210310710135802E9 ; 1.1774534566170392E9 ; 1.5917357154976715E11 ; 0.0
141 ; 8933301.862157743 ; 1.2103654364057949E9 ; 1.1864103518542156E9 ; 1.6038388225990295E11 ; 0.0
142 ; 8901456.362491108 ; 1.210420031240208E9 ; 1.1953436537163734E9 ; 1.6159424769630875E11 ; 0.0
143 ; 8876013.979471304 ; 1.210474493002277E9 ; 1.2042451100788646E9 ; 1.6280466772754895E11 ; 0.0
144 ; 8844261.703589046 ; 1.2105288200741153E9 ; 1.2131211240583358E9 ; 1.6401514222055124E11 ; 0.0
145 ; 8840044.10810007 ; 1.210583010856197E9 ; 1.2219653857619247E9 ; 1.6522567104062537E11 ; 0.0
146 ; 8820689.697586115 ; 1.2106370637668548E9 ; 1.230805429870025E9 ; 1.6643625405148157E11 ; 0.0
147 ; 8814275.669109695 ; 1.2106909772418013E9 ; 1.239626119567611E9 ; 1.676468911152484E11 ; 0.0
148 ; 8800502.59439136 ; 1.2107447497336714E9 ; 1.2484403952367206E9 ; 1.688575820924902E11 ; 0.0
149 ; 8786474.880353967 ; 1.2107983797115822E9 ; 1.257240897831112E9 ; 1.7006832684222388E11 ; 0.0
150 ; 8775409.39937105 ; 1.2108518656607103E9 ; 1.2660273727114658E9 ; 1.7127912522193546E11 ; 0.0
151 ; 8761861.911395581 ; 1.2109052060818872E9 ; 1.274802782110837E9 ; 1.7248997708759616E11 ; 0.0
152 ; 8751343.158742398 ; 1.2109583994912112E9 ; 1.2835646440222325E9 ; 1.7370088229367804E11 ; 0.0
153 ; 8744009.153878927 ; 1.2110114444196732E9 ; 1.292315987180975E9 ; 1.7491184069316925E11 ; 0.0
154 ; 8735421.35942522 ; 1.2110643394128015E9 ; 1.301059996334854E9 ; 1.7612285213758893E11 ; 0.0
155 ; 8724135.554923082 ; 1.2111170830303159E9 ; 1.3097954176942792E9 ; 1.7733391647700174E11 ; 0.0
156 ; 8712822.906998 ; 1.2111696738457994E9 ; 1.3185195532492023E9 ; 1.7854503356003204E11 ; 0.0
157 ; 8700726.550538555 ; 1.2112221104463816E9 ; 1.3272323761562002E9 ; 1.7975620323387784E11 ; 0.0
158 ; 8686022.319481058 ; 1.2112743914324331E9 ; 1.3359331027067387E9 ; 1.8096742534432422E11 ; 0.0
159 ; 8673551.052393617 ; 1.2113265154172757E9 ; 1.3446191250262198E9 ; 1.8217869973575665E11 ; 0.0
160 ; 8663339.569634635 ; 1.2113784810268993E9 ; 1.3532926760786135E9 ; 1.8339002625117392E11 ; 0.0
161 ; 8653507.149014331 ; 1.2114302868996944E9 ; 1.3619560156482482E9 ; 1.846014047322008E11 ; 0.0
162 ; 8634462.291787751 ; 1.2114819316861923E9 ; 1.3706095227972624E9 ; 1.858128350191005E11 ; 0.0
163 ; 8623752.52629605 ; 1.2115334140488148E9 ; 1.3792439850890503E9 ; 1.8702431695078668E11 ; 0.0
164 ; 8609071.279564384 ; 1.2115847326616364E9 ; 1.3878677376153464E9 ; 1.882358503648355E11 ; 0.0
165 ; 8607007.955342464 ; 1.2116358862101545E9 ; 1.3964768088949108E9 ; 1.8944743509749713E11 ; 0.0
166 ; 8589749.050215557 ; 1.2116868733910666E9 ; 1.4050838168502533E9 ; 1.9065907098370728E11 ; 0.0
167 ; 8581681.670380201 ; 1.2117376929120584E9 ; 1.4136735659004688E9 ; 1.9187075785709833E11 ; 0.0
168 ; 8564245.981319739 ; 1.2117883434915998E9 ; 1.422255247570849E9 ; 1.9308249555001038E11 ; 0.0
169 ; 8552211.473995011 ; 1.211838823858746E9 ; 1.4308194935521686E9 ; 1.9429428389350198E11 ; 0.0
170 ; 8542653.499474233 ; 1.2118891327529514E9 ; 1.4393717050261636E9 ; 1.9550612271736072E11 ; 0.0
171 ; 8530723.423705723 ; 1.2119392689238844E9 ; 1.4479143585256379E9 ; 1.9671801185011368E11 ; 0.0
172 ; 8511148.927696805 ; 1.2119892311312547E9 ; 1.4564450819493437E9 ; 1.9792995111903757E11 ; 0.0
173 ; 8504476.25430076 ; 1.2120390181446426E9 ; 1.4649562308770404E9 ; 1.9914194035016882E11 ; 0.0
174 ; 8496611.776226534 ; 1.2120886287433386E9 ; 1.4734607071313412E9 ; 2.0035397936831348E11 ; 0.0
175 ; 8490540.523209047 ; 1.212138061716186E9 ; 1.4819573189075677E9 ; 2.0156606799705682E11 ; 0.0
176 ; 8480353.685133513 ; 1.2121873158614316E9 ; 1.4904478594307768E9 ; 2.02778206058773E11 ; 0.0
177 ; 8474239.295693828 ; 1.21223638998658E9 ; 1.4989282131159103E9 ; 2.0399039337463443E11 ; 0.0
178 ; 8458687.324867234 ; 1.2122852829082556E9 ; 1.5074024524116042E9 ; 2.05202629764621E11 ; 0.0
179 ; 8457720.482970566 ; 1.2123339934520679E9 ; 1.5158611397364714E9 ; 2.0641491504752927E11 ; 0.0
180 ; 8444756.05162217 ; 1.2123825204524827E9 ; 1.524318860219442E9 ; 2.0762724904098132E11 ; 0.0
181 ; 8443345.095500715 ; 1.2124308627526977E9 ; 1.532763616271064E9 ; 2.088396315614338E11 ; 0.0
182 ; 8431383.712371938 ; 1.2124790192045228E9 ; 1.5412069613665648E9 ; 2.100520624241865E11 ; 0.0
183 ; 8427199.702509617 ; 1.2125269886682656E9 ; 1.5496383450789366E9 ; 2.1126454144339102E11 ; 0.0
184 ; 8415539.063040135 ; 1.2125747700126195E9 ; 1.5580655447814462E9 ; 2.124770684320593E11 ; 0.0
185 ; 8406061.825369366 ; 1.212622362114558E9 ; 1.5664810838444862E9 ; 2.1368964320207193E11 ; 0.0
186 ; 8400620.6905312 ; 1.2126697638592312E9 ; 1.5748871456698556E9 ; 2.149022655641865E11 ; 0.0
187 ; 8385998.995083347 ; 1.2127169741398668E9 ; 1.5832877663603868E9 ; 2.1611493532804572E11 ; 0.0
188 ; 8379012.975230581 ; 1.2127639918576748E9 ; 1.5916737653554702E9 ; 2.1732765230218558E11 ; 0.0
189 ; 8372066.396919199 ; 1.2128108159217556E9 ; 1.6000527783307009E9 ; 2.1854041629404324E11 ; 0.0
190 ; 8370321.82340584 ; 1.212857445249012E9 ; 1.6084248447276201E9 ; 2.19753227109965E11 ; 0.0
191 ; 8360899.657141074 ; 1.212903878764063E9 ; 1.6167951665510259E9 ; 2.2096608455521402E11 ; 0.0
192 ; 8349860.80050754 ; 1.2129501153991623E9 ; 1.6251560662081668E9 ; 2.221789884339781E11 ; 0.0
193 ; 8339930.54931626 ; 1.2129961540941195E9 ; 1.6335059270086744E9 ; 2.2339193854937726E11 ; 0.0
194 ; 8334430.079522369 ; 1.213041993796224E9 ; 1.6418458575579906E9 ; 2.2460493470347137E11 ; 0.0
195 ; 8323356.731310164 ; 1.213087633460171E9 ; 1.650180287637513E9 ; 2.258179766972676E11 ; 0.0
196 ; 8314061.138181982 ; 1.2131330720479908E9 ; 1.658503644368823E9 ; 2.2703106433072778E11 ; 0.0
197 ; 8312265.172202225 ; 1.2131783085289817E9 ; 1.666817705507005E9 ; 2.282441974027758E11 ; 0.0
198 ; 8302482.653854322 ; 1.213223341879644E9 ; 1.675129970679207E9 ; 2.2945737571130478E11 ; 0.0
199 ; 8294862.704165845 ; 1.2132681710836165E9 ; 1.6834324533330615E9 ; 2.3067059905318442E11 ; 0.0
200 ; 8289878.027886893 ; 1.2072178840169525E9 ; 1.6917273160372274E9 ; 2.3188386722426804E11 ; 0.0
201 ; 8277716.475531902 ; 1.0875187345489154E9 ; 1.7000171940651143E9 ; 2.3309108510828497E11 ; 0.0
