CSV File for the Network on Day 354
1 - Minute m 
2 - Power Consumed at minute m 
3 - Power Produced at minute m 
4 - Energy Consumed since the beginning of the day 
5 - Energy Produced since the beginning of the day 
6 - Energy Lost since the beginning of the day 
 
0 ; 3.85572654855894E7 ; 6.348452100934474E8 ; 0.0 ; 0.0 ; 0.0
1 ; 3.8596990048946396E7 ; 6.357558966860845E8 ; 3.85572654855894E7 ; 6.348452100934474E8 ; 0.0
2 ; 3.863455853698566E7 ; 6.385199849826164E8 ; 7.71542555345358E7 ; 1.270601106779532E9 ; 0.0
3 ; 3.868778018989979E7 ; 6.431374926230842E8 ; 1.1578881407152146E8 ; 1.9091210917621484E9 ; 0.0
4 ; 3.87427087533419E7 ; 6.496084354352841E8 ; 1.5447659426142126E8 ; 2.5522585843852324E9 ; 0.0
5 ; 3.880630000375735E7 ; 6.579328273406218E8 ; 1.9321930301476318E8 ; 3.2018670198205166E9 ; 0.0
6 ; 3.8901535565021105E7 ; 6.681106802695969E8 ; 2.3202560301852053E8 ; 3.8597998471611385E9 ; 0.0
7 ; 3.9030335718487374E7 ; 6.801420040880938E8 ; 2.7092713858354163E8 ; 4.527910527430736E9 ; 0.0
8 ; 3.9215669814475685E7 ; 6.940268065355325E8 ; 3.09957474302029E8 ; 5.208052531518829E9 ; 0.0
9 ; 3.949693544626049E7 ; 7.097650931757795E8 ; 3.4917314411650467E8 ; 5.902079338054361E9 ; 0.0
10 ; 3.993598156125831E7 ; 7.273568673615472E8 ; 3.886700795627652E8 ; 6.611844431230141E9 ; 0.0
11 ; 4.0628327415164806E7 ; 7.468021302128167E8 ; 4.286060611240235E8 ; 7.339201298591688E9 ; 0.0
12 ; 4.172944141284074E7 ; 7.681008806096067E8 ; 4.692343885391883E8 ; 8.086003428804504E9 ; 0.0
13 ; 4.278913801584812E7 ; 7.912531151992049E8 ; 5.1096382995202905E8 ; 8.854104309414112E9 ; 0.0
14 ; 4.292004560620826E7 ; 8.162588284177451E8 ; 5.537529679678771E8 ; 9.645357424613317E9 ; 0.0
15 ; 4.297030781143691E7 ; 8.431180125258069E8 ; 5.966730135740854E8 ; 1.0461616253031063E10 ; 0.0
16 ; 4.301275455786785E7 ; 8.718306576575063E8 ; 6.396433213855222E8 ; 1.130473426555687E10 ; 0.0
17 ; 4.306897994519932E7 ; 9.023967518823435E8 ; 6.826560759433901E8 ; 1.2176564923214376E10 ; 0.0
18 ; 4.311409906375524E7 ; 9.348162812789125E8 ; 7.257250558885895E8 ; 1.307896167509672E10 ; 0.0
19 ; 4.31738997317979E7 ; 9.690892300194179E8 ; 7.688391549523448E8 ; 1.4013777956375633E10 ; 0.0
20 ; 4.3220683921164766E7 ; 1.0052155804638176E9 ; 8.120130546841427E8 ; 1.4982867186395052E10 ; 0.0
21 ; 4.327330370371963E7 ; 1.0431953132623295E9 ; 8.552337386053075E8 ; 1.598808276685887E10 ; 0.0
22 ; 4.331897489505447E7 ; 1.0830284074649506E9 ; 8.985070423090271E8 ; 1.7031278080121199E10 ; 0.0
23 ; 4.337754867376677E7 ; 1.1247148406366265E9 ; 9.418260172040815E8 ; 1.811430648758615E10 ; 0.0
24 ; 4.342520548716112E7 ; 1.1682545889766781E9 ; 9.852035658778483E8 ; 1.923902132822278E10 ; 0.0
25 ; 4.347254085920146E7 ; 1.2057758728302345E9 ; 1.0286287713650094E9 ; 2.0407275917199455E10 ; 0.0
26 ; 4.352363240028867E7 ; 1.2057999530335183E9 ; 1.0721013122242109E9 ; 2.161305179002969E10 ; 0.0
27 ; 4.35705830814147E7 ; 1.2058254181875057E9 ; 1.1156249446244996E9 ; 2.281885174306321E10 ; 0.0
28 ; 4.3623630784128875E7 ; 1.2058522402619638E9 ; 1.1591955277059143E9 ; 2.4024677161250717E10 ; 0.0
29 ; 4.367259285316003E7 ; 1.2058803904764156E9 ; 1.2028191584900432E9 ; 2.523052940151268E10 ; 0.0
30 ; 4.372240017288392E7 ; 1.2059098394187646E9 ; 1.2464917513432033E9 ; 2.6436409791989098E10 ; 0.0
31 ; 4.3761544076553226E7 ; 1.2059405571601977E9 ; 1.2902141515160873E9 ; 2.7642319631407864E10 ; 0.0
32 ; 4.380219014897342E7 ; 1.2059725133656566E9 ; 1.3339756955926404E9 ; 2.884826018856806E10 ; 0.0
33 ; 4.385100249057582E7 ; 1.2060056773992538E9 ; 1.3777778857416139E9 ; 3.005423270193372E10 ; 0.0
34 ; 4.389786774976985E7 ; 1.206040018424157E9 ; 1.4216288882321897E9 ; 3.1260238379332973E10 ; 0.0
35 ; 4.3938855558623284E7 ; 1.2060755054965663E9 ; 1.4655267559819596E9 ; 3.246627839775713E10 ; 0.0
36 ; 4.397867030083554E7 ; 1.2061121076535172E9 ; 1.509465611540583E9 ; 3.3672353903253696E10 ; 0.0
37 ; 4.401578835266571E7 ; 1.2061497939943361E9 ; 1.5534442818414185E9 ; 3.487846601090721E10 ; 0.0
38 ; 4.405529231304249E7 ; 1.2061885337556841E9 ; 1.5974600701940842E9 ; 3.608461580490155E10 ; 0.0
39 ; 4.409260932073895E7 ; 1.206228296380179E9 ; 1.6415153625071266E9 ; 3.7290804338657234E10 ; 0.0
40 ; 4.412182623660805E7 ; 1.206269051578679E9 ; 1.6856079718278656E9 ; 3.8497032635037415E10 ; 0.0
41 ; 4.4157038382182345E7 ; 1.2063107693863623E9 ; 1.7297297980644736E9 ; 3.97033016866161E10 ; 0.0
42 ; 4.4187841867092125E7 ; 1.2063534202127867E9 ; 1.773886836446656E9 ; 4.090961245600246E10 ; 0.0
43 ; 4.421358130769038E7 ; 1.20639697488616E9 ; 1.8180746783137481E9 ; 4.211596587621524E10 ; 0.0
44 ; 4.424470802677537E7 ; 1.2064414046920843E9 ; 1.8622882596214385E9 ; 4.33223628511014E10 ; 0.0
45 ; 4.4266027086919524E7 ; 1.2064866814070616E9 ; 1.9065329676482139E9 ; 4.452880425579349E10 ; 0.0
46 ; 4.428816152407382E7 ; 1.2065327773270614E9 ; 1.9507989947351334E9 ; 4.573529093720055E10 ; 0.0
47 ; 4.4313998303557046E7 ; 1.2065796652914772E9 ; 1.9950871562592072E9 ; 4.694182371452761E10 ; 0.0
48 ; 4.433184733333312E7 ; 1.2066273187027826E9 ; 2.0394011545627644E9 ; 4.814840337981909E10 ; 0.0
49 ; 4.4343157246176764E7 ; 1.2066757115422187E9 ; 2.0837330018960974E9 ; 4.935503069852187E10 ; 0.0
50 ; 4.436218526213736E7 ; 1.206724818381832E9 ; 2.1280761591422741E9 ; 5.0561706410064095E10 ; 0.0
51 ; 4.437893738932838E7 ; 1.20677461439317E9 ; 2.1724383444044113E9 ; 5.176843122844592E10 ; 0.0
52 ; 4.438878456985145E7 ; 1.20682507535295E9 ; 2.21681728179374E9 ; 5.2975205842839096E10 ; 0.0
53 ; 4.439879529547003E7 ; 1.2068761776459768E9 ; 2.261206066363591E9 ; 5.418203091819205E10 ; 0.0
54 ; 4.441663126756974E7 ; 1.2069278982656045E9 ; 2.3056048616590614E9 ; 5.538890709583802E10 ; 0.0
55 ; 4.443202246392834E7 ; 1.2069802148119936E9 ; 2.350021492926631E9 ; 5.659583499410362E10 ; 0.0
56 ; 4.444837444781231E7 ; 1.2070331054884174E9 ; 2.394453515390559E9 ; 5.780281520891562E10 ; 0.0
57 ; 4.445373807398223E7 ; 1.2070865490958498E9 ; 2.4389018898383713E9 ; 5.900984831440404E10 ; 0.0
58 ; 4.446071287595046E7 ; 1.2071405250260472E9 ; 2.4833556279123535E9 ; 6.0216934863499886E10 ; 0.0
59 ; 4.447870702013817E7 ; 1.2071950132533286E9 ; 2.527816340788304E9 ; 6.142407538852593E10 ; 0.0
60 ; 4.447750042971384E7 ; 1.2072499943252344E9 ; 2.572295047808442E9 ; 6.263127040177926E10 ; 0.0
61 ; 4.449215357424657E7 ; 1.2073054493522375E9 ; 2.616772548238156E9 ; 6.383852039610449E10 ; 0.0
62 ; 4.450591879744542E7 ; 1.2073613599966536E9 ; 2.6612647018124022E9 ; 6.5045825845456726E10 ; 0.0
63 ; 4.451238107121656E7 ; 1.207417708460901E9 ; 2.7057706206098475E9 ; 6.625318720545338E10 ; 0.0
64 ; 4.451527525360496E7 ; 1.207474477475226E9 ; 2.750283001681064E9 ; 6.7460604913914276E10 ; 0.0
65 ; 4.452714618554917E7 ; 1.207531650285017E9 ; 2.794798276934669E9 ; 6.86680793913895E10 ; 0.0
66 ; 4.454011806162322E7 ; 1.2075892106378024E9 ; 2.8393254231202183E9 ; 6.987561104167451E10 ; 0.0
67 ; 4.454912388572326E7 ; 1.2076471427700315E9 ; 2.8838655411818414E9 ; 7.108320025231232E10 ; 0.0
68 ; 4.455645199468191E7 ; 1.2077054313937125E9 ; 2.9284146650675645E9 ; 7.229084739508235E10 ; 0.0
69 ; 4.455191773001312E7 ; 1.2077640616829834E9 ; 2.9729711170622463E9 ; 7.349855282647606E10 ; 0.0
70 ; 4.455668273653567E7 ; 1.207823019260679E9 ; 3.017523034792259E9 ; 7.470631688815904E10 ; 0.0
71 ; 4.457015952370371E7 ; 1.207882290184948E9 ; 3.062079717528795E9 ; 7.591413990741972E10 ; 0.0
72 ; 4.4572160899986014E7 ; 1.2079418609359689E9 ; 3.1066498770524983E9 ; 7.712202219760468E10 ; 0.0
73 ; 4.457988169284486E7 ; 1.2080017184028075E9 ; 3.151222037952484E9 ; 7.832996405854065E10 ; 0.0
74 ; 4.457928328131981E7 ; 1.2080618498704484E9 ; 3.195801919645329E9 ; 7.953796577694345E10 ; 0.0
75 ; 4.458385730354683E7 ; 1.2081222430070348E9 ; 3.2403812029266486E9 ; 8.07460276268139E10 ; 0.0
76 ; 4.4587519177681975E7 ; 1.2081828858513389E9 ; 3.2849650602301955E9 ; 8.195414986982094E10 ; 0.0
77 ; 4.459748525758656E7 ; 1.2082437668004851E9 ; 3.3295525794078774E9 ; 8.316233275567227E10 ; 0.0
78 ; 4.458467897184538E7 ; 1.2083048745979433E9 ; 3.374150064665464E9 ; 8.437057652247276E10 ; 0.0
79 ; 4.457718476618604E7 ; 1.208366198321806E9 ; 3.418734743637309E9 ; 8.557888139707071E10 ; 0.0
80 ; 4.4562528220490575E7 ; 1.2084277273733592E9 ; 3.4633119284034953E9 ; 8.678724759539252E10 ; 0.0
81 ; 4.455192396718933E7 ; 1.2084894514659553E9 ; 3.507874456623986E9 ; 8.799567532276587E10 ; 0.0
82 ; 4.453618092835417E7 ; 1.2085513606141949E9 ; 3.552426380591175E9 ; 8.920416477423183E10 ; 0.0
83 ; 4.452961886220605E7 ; 1.2086134451234176E9 ; 3.5969625615195293E9 ; 9.041271613484602E10 ; 0.0
84 ; 4.451128609944573E7 ; 1.2086756955795078E9 ; 3.6414921803817353E9 ; 9.162132957996944E10 ; 0.0
85 ; 4.45041065364864E7 ; 1.2087381028390117E9 ; 3.686003466481181E9 ; 9.283000527554895E10 ; 0.0
86 ; 4.4488160412459575E7 ; 1.2088006580195656E9 ; 3.730507573017668E9 ; 9.403874337838795E10 ; 0.0
87 ; 4.4475359817539655E7 ; 1.208863352490634E9 ; 3.774995733430127E9 ; 9.524754403640752E10 ; 0.0
88 ; 4.445838460307464E7 ; 1.208926177864552E9 ; 3.819471093247667E9 ; 9.645640738889815E10 ; 0.0
89 ; 4.445397558676626E7 ; 1.2089891259878676E9 ; 3.8639294778507414E9 ; 9.76653335667627E10 ; 0.0
90 ; 4.44361162796471E7 ; 1.209052188932982E9 ; 3.9083834534375076E9 ; 9.887432269275056E10 ; 0.0
91 ; 4.4423220415678784E7 ; 1.2091153589900765E9 ; 3.9528195697171545E9 ; 1.0008337488168355E11 ; 0.0
92 ; 4.440002057391788E7 ; 1.2091786286593256E9 ; 3.9972427901328335E9 ; 1.0129249024067363E11 ; 0.0
93 ; 4.4383938903379284E7 ; 1.2092419906433854E9 ; 4.0416428107067513E9 ; 1.0250166886933296E11 ; 0.0
94 ; 4.43673247374438E7 ; 1.209305437840152E9 ; 4.086026749610131E9 ; 1.0371091085997635E11 ; 0.0
95 ; 4.435695829089824E7 ; 1.2093689633357842E9 ; 4.1303940743475747E9 ; 1.049202162978165E11 ; 0.0
96 ; 4.434517786396298E7 ; 1.2094325603979785E9 ; 4.174751032638473E9 ; 1.0612958526115228E11 ; 0.0
97 ; 4.432052419086875E7 ; 1.2094962224694958E9 ; 4.219096210502436E9 ; 1.0733901782155026E11 ; 0.0
98 ; 4.430059490013337E7 ; 1.2095599431619258E9 ; 4.263416734693305E9 ; 1.0854851404401976E11 ; 0.0
99 ; 4.427858023181322E7 ; 1.209623716249685E9 ; 4.307717329593438E9 ; 1.0975807398718169E11 ; 0.0
100 ; 4.426925183270715E7 ; 1.2096875356642413E9 ; 4.351995909825252E9 ; 1.1096769770343137E11 ; 0.0
101 ; 4.424838524493585E7 ; 1.2097513954885552E9 ; 4.396265161657959E9 ; 1.1217738523909561E11 ; 0.0
102 ; 4.422595802474824E7 ; 1.209815289951732E9 ; 4.440513546902895E9 ; 1.1338713663458417E11 ; 0.0
103 ; 4.420581847853069E7 ; 1.209879213423878E9 ; 4.484739504927643E9 ; 1.145969519245359E11 ; 0.0
104 ; 4.4189032996594094E7 ; 1.209943160411152E9 ; 4.528945323406174E9 ; 1.1580683113795978E11 ; 0.0
105 ; 4.416414297353757E7 ; 1.2100071255510073E9 ; 4.573134356402768E9 ; 1.1701677429837093E11 ; 0.0
106 ; 4.414227420104144E7 ; 1.210071103607615E9 ; 4.617298499376306E9 ; 1.1822678142392194E11 ; 0.0
107 ; 4.411934338272807E7 ; 1.2101350894674637E9 ; 4.661440773577347E9 ; 1.1943685252752956E11 ; 0.0
108 ; 4.4096349464347616E7 ; 1.210199078135128E9 ; 4.705560116960074E9 ; 1.2064698761699702E11 ; 0.0
109 ; 4.407933547114627E7 ; 1.2102630647292013E9 ; 4.749656466424422E9 ; 1.2185718669513216E11 ; 0.0
110 ; 4.405604050563876E7 ; 1.210327044478382E9 ; 4.793735801895569E9 ; 1.2306744975986136E11 ; 0.0
111 ; 4.401924862327341E7 ; 1.210391012717716E9 ; 4.837791842401208E9 ; 1.2427777680433974E11 ; 0.0
112 ; 4.401213330918546E7 ; 1.2104549648849778E9 ; 4.881811091024482E9 ; 1.2548816781705745E11 ; 0.0
113 ; 4.398412670724492E7 ; 1.2105188965171962E9 ; 4.925823224333667E9 ; 1.2669862278194243E11 ; 0.0
114 ; 4.3958480930350505E7 ; 1.210582803247312E9 ; 4.969807351040912E9 ; 1.2790914167845963E11 ; 0.0
115 ; 4.3932816537194766E7 ; 1.2106466808009639E9 ; 5.013765831971262E9 ; 1.2911972448170694E11 ; 0.0
116 ; 4.391281860879089E7 ; 1.2107105249933994E9 ; 5.057698648508457E9 ; 1.303303711625079E11 ; 0.0
117 ; 4.388209129287246E7 ; 1.2107743317265034E9 ; 5.101611467117249E9 ; 1.315410816875013E11 ; 0.0
118 ; 4.3855611751965575E7 ; 1.2108380969859421E9 ; 5.145493558410121E9 ; 1.327518560192278E11 ; 0.0
119 ; 4.382220407599104E7 ; 1.2109018168384159E9 ; 5.1893491701620865E9 ; 1.3396269411621375E11 ; 0.0
120 ; 4.379968052787862E7 ; 1.2109654874290166E9 ; 5.233171374238077E9 ; 1.3517359593305215E11 ; 0.0
121 ; 4.377848925668227E7 ; 1.2110291049786894E9 ; 5.276971054765956E9 ; 1.3638456142048117E11 ; 0.0
122 ; 4.3756291440379485E7 ; 1.211092665781787E9 ; 5.320749544022638E9 ; 1.3759559052545987E11 ; 0.0
123 ; 4.371913938793497E7 ; 1.21115616620372E9 ; 5.364505835463017E9 ; 1.3880668319124167E11 ; 0.0
124 ; 4.3691329522858776E7 ; 1.2112196026786962E9 ; 5.408224974850952E9 ; 1.4001783935744537E11 ; 0.0
125 ; 4.365634680510715E7 ; 1.2112829717075462E9 ; 5.451916304373811E9 ; 1.4122905896012408E11 ; 0.0
126 ; 4.3631965682151206E7 ; 1.21134626985563E9 ; 5.495572651178918E9 ; 1.4244034193183163E11 ; 0.0
127 ; 4.359987910274558E7 ; 1.2114094937508237E9 ; 5.539204616861069E9 ; 1.4365168820168726E11 ; 0.0
128 ; 4.356769551445335E7 ; 1.2114726400815837E9 ; 5.582804495963815E9 ; 1.4486309769543808E11 ; 0.0
129 ; 4.3534814623257644E7 ; 1.2115357055950797E9 ; 5.626372191478268E9 ; 1.4607457033551965E11 ; 0.0
130 ; 4.351001522319879E7 ; 1.2115986870954027E9 ; 5.669907006101525E9 ; 1.4728610604111475E11 ; 0.0
131 ; 4.346011172640133E7 ; 1.2116615814418368E9 ; 5.713417021324724E9 ; 1.4849770472821014E11 ; 0.0
132 ; 4.341756056200654E7 ; 1.211724385547197E9 ; 5.756877133051126E9 ; 1.4970936630965198E11 ; 0.0
133 ; 4.336954744590914E7 ; 1.2117870963762276E9 ; 5.800294693613132E9 ; 1.509210906951992E11 ; 0.0
134 ; 4.33241344096932E7 ; 1.2118497109440622E9 ; 5.843664241059042E9 ; 1.521328777915754E11 ; 0.0
135 ; 4.3278608322257176E7 ; 1.211912226314739E9 ; 5.886988375468735E9 ; 1.5334472750251947E11 ; 0.0
136 ; 4.323528203913905E7 ; 1.2119746395997722E9 ; 5.930266983790992E9 ; 1.545566397288342E11 ; 0.0
137 ; 4.3185444907391414E7 ; 1.212036947956775E9 ; 5.973502265830131E9 ; 1.5576861436843396E11 ; 0.0
138 ; 4.31369555607471E7 ; 1.2120991485881333E9 ; 6.016687710737522E9 ; 1.5698065131639075E11 ; 0.0
139 ; 4.309418497195527E7 ; 1.2121612387397296E9 ; 6.059824666298269E9 ; 1.5819275046497888E11 ; 0.0
140 ; 4.303775983336055E7 ; 1.2122232156997116E9 ; 6.102918851270225E9 ; 1.594049117037186E11 ; 0.0
141 ; 4.2988639542154685E7 ; 1.212285076797305E9 ; 6.145956611103585E9 ; 1.606171349194183E11 ; 0.0
142 ; 4.293892060358401E7 ; 1.2123468194016747E9 ; 6.18894525064574E9 ; 1.618294199962156E11 ; 0.0
143 ; 4.2899108401033685E7 ; 1.2124084409208179E9 ; 6.231884171249324E9 ; 1.6304176681561728E11 ; 0.0
144 ; 4.284994068406561E7 ; 1.2124699388005066E9 ; 6.274783279650357E9 ; 1.642541752565381E11 ; 0.0
145 ; 4.281062349811146E7 ; 1.212531310523263E9 ; 6.317633220334423E9 ; 1.654666451953386E11 ; 0.0
146 ; 4.277398376919307E7 ; 1.212592553607372E9 ; 6.360443843832535E9 ; 1.6667917650586185E11 ; 0.0
147 ; 4.27392967368399E7 ; 1.2126536656059308E9 ; 6.4032178276017275E9 ; 1.678917690594692E11 ; 0.0
148 ; 4.2710151151947334E7 ; 1.2127146441059303E9 ; 6.445957124338568E9 ; 1.6910442272507513E11 ; 0.0
149 ; 4.267739005677582E7 ; 1.2127754867273715E9 ; 6.488667275490515E9 ; 1.7031713736918106E11 ; 0.0
150 ; 4.26404548944858E7 ; 1.2128361911224098E9 ; 6.531344665547291E9 ; 1.7152991285590845E11 ; 0.0
151 ; 4.2606900395694226E7 ; 1.2128967549745343E9 ; 6.573985120441776E9 ; 1.7274274904703085E11 ; 0.0
152 ; 4.2577154069597594E7 ; 1.2129571759977708E9 ; 6.61659202083747E9 ; 1.739556458020054E11 ; 0.0
153 ; 4.25397344989952E7 ; 1.213017451935917E9 ; 6.659169174907067E9 ; 1.7516860297800317E11 ; 0.0
154 ; 4.25077427209351E7 ; 1.2130775805618017E9 ; 6.701708909406062E9 ; 1.763816204299391E11 ; 0.0
155 ; 4.2472382670463815E7 ; 1.2131375596765711E9 ; 6.744216652126997E9 ; 1.775946980105009E11 ; 0.0
156 ; 4.243691796341991E7 ; 1.2131973871090004E9 ; 6.786689034797461E9 ; 1.7880783557017746E11 ; 0.0
157 ; 4.240096749797234E7 ; 1.213257060714827E9 ; 6.82912595276088E9 ; 1.8002103295728647E11 ; 0.0
158 ; 4.23693684521563E7 ; 1.2133165783761098E9 ; 6.871526920258853E9 ; 1.8123429001800128E11 ; 0.0
159 ; 4.2325818906621136E7 ; 1.2133759380006084E9 ; 6.913896288711009E9 ; 1.8244760659637738E11 ; 0.0
160 ; 4.230443547321638E7 ; 1.2134351375211835E9 ; 6.95622210761763E9 ; 1.83660982534378E11 ; 0.0
161 ; 4.226585599722767E7 ; 1.21349417489522E9 ; 6.998526543090846E9 ; 1.8487441767189917E11 ; 0.0
162 ; 4.223028388370413E7 ; 1.2135530481040678E9 ; 7.040792399088074E9 ; 1.860879118467944E11 ; 0.0
163 ; 4.219457150778593E7 ; 1.2136117551525016E9 ; 7.083022682971778E9 ; 1.8730146489489847E11 ; 0.0
164 ; 4.215034893115546E7 ; 1.2136702940682E9 ; 7.125217254479564E9 ; 1.8851507665005096E11 ; 0.0
165 ; 4.211500152511706E7 ; 1.2137286629012427E9 ; 7.167367603410719E9 ; 1.8972874694411917E11 ; 0.0
166 ; 4.208123518545127E7 ; 1.213786859723622E9 ; 7.209482604935836E9 ; 1.9094247560702042E11 ; 0.0
167 ; 4.204380448247636E7 ; 1.2138448826287744E9 ; 7.251563840121287E9 ; 1.9215626246674405E11 ; 0.0
168 ; 4.200736934211233E7 ; 1.2139027297311246E9 ; 7.293607644603764E9 ; 1.9337010734937283E11 ; 0.0
169 ; 4.197073720629675E7 ; 1.213960399165647E9 ; 7.335615013945876E9 ; 1.9458401007910394E11 ; 0.0
170 ; 4.193448615279236E7 ; 1.2140178890874407E9 ; 7.377585751152173E9 ; 1.957979704782696E11 ; 0.0
171 ; 4.190068259801876E7 ; 1.2140751976713185E9 ; 7.419520237304965E9 ; 1.9701198836735703E11 ; 0.0
172 ; 4.186515318386862E7 ; 1.2141323231114106E9 ; 7.461420919902984E9 ; 1.9822606356502835E11 ; 0.0
173 ; 4.182566322979569E7 ; 1.214189263620781E9 ; 7.503286073086852E9 ; 1.9944019588813977E11 ; 0.0
174 ; 4.180248224048659E7 ; 1.2142460174310548E9 ; 7.545111736316648E9 ; 2.0065438515176056E11 ; 0.0
175 ; 4.177560291566298E7 ; 1.2143025827920606E9 ; 7.586914218557134E9 ; 2.0186863116919162E11 ; 0.0
176 ; 4.174990457360439E7 ; 1.2143589579714832E9 ; 7.628689821472796E9 ; 2.0308293375198367E11 ; 0.0
177 ; 4.173588946817768E7 ; 1.2144151412545261E9 ; 7.670439726046401E9 ; 2.0429729270995517E11 ; 0.0
178 ; 4.1718085190664515E7 ; 1.2144711309435887E9 ; 7.712175615514579E9 ; 2.055117078512097E11 ; 0.0
179 ; 4.168524894999209E7 ; 1.214526925357951E9 ; 7.753893700705243E9 ; 2.067261789821533E11 ; 0.0
180 ; 4.1661926199762106E7 ; 1.2145825228334687E9 ; 7.795578949655235E9 ; 2.0794070590751123E11 ; 0.0
181 ; 4.164448999150684E7 ; 1.2146379217222805E9 ; 7.837240875854998E9 ; 2.091552884303447E11 ; 0.0
182 ; 4.162088633307866E7 ; 1.2146931203925214E9 ; 7.878885365846504E9 ; 2.10369926352067E11 ; 0.0
183 ; 4.159777647969288E7 ; 1.2147481172280483E9 ; 7.920506252179583E9 ; 2.115846194724595E11 ; 0.0
184 ; 4.157135900466338E7 ; 1.2148029106281734E9 ; 7.962104028659275E9 ; 2.1279936758968756E11 ; 0.0
185 ; 4.15536000581862E7 ; 1.2148574990074046E9 ; 8.0036753876639385E9 ; 2.1401417050031573E11 ; 0.0
186 ; 4.152808481640966E7 ; 1.2149118807951965E9 ; 8.045228987722125E9 ; 2.1522902799932315E11 ; 0.0
187 ; 4.150564104456532E7 ; 1.214966054435709E9 ; 8.086757072538535E9 ; 2.1644393988011835E11 ; 0.0
188 ; 4.148252695546391E7 ; 1.2150200183875704E9 ; 8.1282627135831E9 ; 2.1765890593455405E11 ; 0.0
189 ; 4.1458551433865584E7 ; 1.2150737711236541E9 ; 8.169745240538565E9 ; 2.1887392595294162E11 ; 0.0
190 ; 4.1435638703400426E7 ; 1.215127311130856E9 ; 8.21120379197243E9 ; 2.2008899972406528E11 ; 0.0
191 ; 4.141021002028109E7 ; 1.2151806369098828E9 ; 8.252639430675831E9 ; 2.2130412703519614E11 ; 0.0
192 ; 4.1388834008332595E7 ; 1.2152337469750464E9 ; 8.294049640696112E9 ; 2.2251930767210602E11 ; 0.0
193 ; 4.136594945793837E7 ; 1.215286639854064E9 ; 8.335438474704444E9 ; 2.2373454141908105E11 ; 0.0
194 ; 4.1336450810723156E7 ; 1.215339314087864E9 ; 8.376804424162382E9 ; 2.2494982805893512E11 ; 0.0
195 ; 4.132167740728925E7 ; 1.2153917682303996E9 ; 8.418140874973105E9 ; 2.2616516737302298E11 ; 0.0
196 ; 4.1291167889344595E7 ; 1.2154440008484685E9 ; 8.459462552380395E9 ; 2.273805591412534E11 ; 0.0
