CSV File for the Network on Day 280
1 - Minute m 
2 - Power Consumed at minute m 
3 - Power Produced at minute m 
4 - Energy Consumed since the beginning of the day 
5 - Energy Produced since the beginning of the day 
6 - Energy Lost since the beginning of the day 
 
0 ; 2.270751600414374E7 ; 6.366148848087405E8 ; 0.0 ; 0.0 ; 0.0
1 ; 2.2723450794934176E7 ; 6.375255760175695E8 ; 2.270751600414374E7 ; 6.366148848087405E8 ; 0.0
2 ; 2.2744008208720192E7 ; 6.402896845859318E8 ; 4.543096679907791E7 ; 1.2741404608263102E9 ; 0.0
3 ; 2.2765740446689703E7 ; 6.449072230102633E8 ; 6.81749750077981E7 ; 1.914430145412242E9 ; 0.0
4 ; 2.280517209739097E7 ; 6.513782024440228E8 ; 9.09407154544878E7 ; 2.5593373684225054E9 ; 0.0
5 ; 2.2854735175749257E7 ; 6.597026326514835E8 ; 1.1374588755187877E8 ; 3.210715570866528E9 ; 0.0
6 ; 2.2920911511843577E7 ; 6.698805219667118E8 ; 1.3660062272762802E8 ; 3.8704182035180116E9 ; 0.0
7 ; 2.303001216880729E7 ; 6.819118772581317E8 ; 1.595215342394716E8 ; 4.540298725484723E9 ; 0.0
8 ; 2.3195250669286206E7 ; 6.957967038990276E8 ; 1.825515464082789E8 ; 5.222210602742855E9 ; 0.0
9 ; 2.3459304359308634E7 ; 7.115350057442832E8 ; 2.0574679707756513E8 ; 5.918007306641883E9 ; 0.0
10 ; 2.3874676102595698E7 ; 7.291267851135936E8 ; 2.2920610143687376E8 ; 6.629542312386166E9 ; 0.0
11 ; 2.4541314790220138E7 ; 7.485720427813205E8 ; 2.5308077753946945E8 ; 7.35866909749976E9 ; 0.0
12 ; 2.561995096179518E7 ; 7.698707779731017E8 ; 2.7762209232968956E8 ; 8.10724114028108E9 ; 0.0
13 ; 2.667059756287863E7 ; 7.930229883692427E8 ; 3.032420432914847E8 ; 8.877111918254183E9 ; 0.0
14 ; 2.677999495659746E7 ; 8.1802867011486E8 ; 3.299126408543633E8 ; 9.670134906623425E9 ; 0.0
15 ; 2.6800292277437802E7 ; 8.448878178366686E8 ; 3.5669263581096077E8 ; 1.0488163576738285E10 ; 0.0
16 ; 2.683364439967817E7 ; 8.736004246662451E8 ; 3.834929280883986E8 ; 1.1333051394574953E10 ; 0.0
17 ; 2.686056396709098E7 ; 9.041664822695227E8 ; 4.1032657248807675E8 ; 1.2206651819241198E10 ; 0.0
18 ; 2.68952918869212E7 ; 9.365859808822281E8 ; 4.371871364551677E8 ; 1.311081830151072E10 ; 0.0
19 ; 2.6917945682907894E7 ; 9.708589093509029E8 ; 4.6408242834208894E8 ; 1.4047404282392948E10 ; 0.0
20 ; 2.6951335683071565E7 ; 1.0069852551791106E9 ; 4.910003740249968E8 ; 1.501826319174385E10 ; 0.0
21 ; 2.698468215110808E7 ; 1.0449650045783868E9 ; 5.179517097080684E8 ; 1.6025248446922962E10 ; 0.0
22 ; 2.701028065192035E7 ; 1.0847981425234563E9 ; 5.449363918591764E8 ; 1.7070213451501348E10 ; 0.0
23 ; 2.7043061490324393E7 ; 1.1264846528112113E9 ; 5.719466725110967E8 ; 1.8155011594024803E10 ; 0.0
24 ; 2.7082182969997823E7 ; 1.1700245181229324E9 ; 5.989897340014211E8 ; 1.9281496246836014E10 ; 0.0
25 ; 2.7107577124469347E7 ; 1.2075459654783177E9 ; 6.260719169714189E8 ; 2.0451520764958946E10 ; 0.0
26 ; 2.7141293972064085E7 ; 1.2075702625239587E9 ; 6.531794940958883E8 ; 2.1659066730437263E10 ; 0.0
27 ; 2.716594593186464E7 ; 1.207596004751501E9 ; 6.803207880679524E8 ; 2.2866636992961224E10 ; 0.0
28 ; 2.7193568163073093E7 ; 1.2076231710481415E9 ; 7.07486733999817E8 ; 2.4074232997712723E10 ; 0.0
29 ; 2.7218727755572874E7 ; 1.2076517395265775E9 ; 7.346803021628901E8 ; 2.5281856168760864E10 ; 0.0
30 ; 2.7251283543689776E7 ; 1.2076816875956204E9 ; 7.61899029918463E8 ; 2.648950790828744E10 ; 0.0
31 ; 2.7277082881592285E7 ; 1.2077129920304892E9 ; 7.891503134621527E8 ; 2.769718959588306E10 ; 0.0
32 ; 2.729660465271839E7 ; 1.2077456290423641E9 ; 8.16427396343745E8 ; 2.890490258791355E10 ; 0.0
33 ; 2.7324067407474626E7 ; 1.207779574346805E9 ; 8.437240009964634E8 ; 3.0112648216955917E10 ; 0.0
34 ; 2.734807462034497E7 ; 1.2078148032306867E9 ; 8.71048068403938E8 ; 3.1320427791302723E10 ; 0.0
35 ; 2.7377401184009537E7 ; 1.207851290617334E9 ; 8.98396143024283E8 ; 3.252824259453341E10 ; 0.0
36 ; 2.739491794073312E7 ; 1.2078890111295762E9 ; 9.257735442082926E8 ; 3.373609388515074E10 ; 0.0
37 ; 2.7413652389623333E7 ; 1.2079279391504905E9 ; 9.531684621490257E8 ; 3.494398289628032E10 ; 0.0
38 ; 2.743331717590072E7 ; 1.2079680488816214E9 ; 9.80582114538649E8 ; 3.615191083543081E10 ; 0.0
39 ; 2.7450702972445905E7 ; 1.2080093143985262E9 ; 1.0080154317145497E9 ; 3.735987888431243E10 ; 0.0
40 ; 2.7467866319006197E7 ; 1.2080517097035062E9 ; 1.0354661346869955E9 ; 3.856788819871096E10 ; 0.0
41 ; 2.748234588426171E7 ; 1.208095208775436E9 ; 1.0629340010060017E9 ; 3.977593990841447E10 ; 0.0
42 ; 2.749129272519844E7 ; 1.208139785616626E9 ; 1.0904163468902633E9 ; 4.09840351171899E10 ; 0.0
43 ; 2.7504395009717498E7 ; 1.2081854142966821E9 ; 1.1179076396154618E9 ; 4.2192174902806526E10 ; 0.0
44 ; 2.7502844336179383E7 ; 1.2082320689933538E9 ; 1.1454120346251793E9 ; 4.340036031710321E10 ; 0.0
45 ; 2.7515348202117875E7 ; 1.208279724030394E9 ; 1.1729148789613588E9 ; 4.4608592386096565E10 ; 0.0
46 ; 2.7521656096197538E7 ; 1.2083283539124568E9 ; 1.2004302271634767E9 ; 4.581687211012696E10 ; 0.0
47 ; 2.7528236244232398E7 ; 1.2083779333570974E9 ; 1.2279518832596743E9 ; 4.702520046403942E10 ; 0.0
48 ; 2.752682502917178E7 ; 1.2084284373239455E9 ; 1.2554801195039067E9 ; 4.8233578397396515E10 ; 0.0
49 ; 2.7520506649151824E7 ; 1.208479841041133E9 ; 1.2830069445330784E9 ; 4.944200683472046E10 ; 0.0
50 ; 2.752204216920153E7 ; 1.208532120029079E9 ; 1.3105274511822302E9 ; 5.065048667576159E10 ; 0.0
51 ; 2.752410882854327E7 ; 1.208585250121735E9 ; 1.3380494933514318E9 ; 5.1859018795790665E10 ; 0.0
52 ; 2.751196299993081E7 ; 1.208639207485405E9 ; 1.365573602179975E9 ; 5.30676040459124E10 ; 0.0
53 ; 2.7507746599735484E7 ; 1.2086939686352582E9 ; 1.393085565179906E9 ; 5.4276243253397804E10 ; 0.0
54 ; 2.750544235603327E7 ; 1.208749510449659E9 ; 1.4205933117796414E9 ; 5.5484937222033066E10 ; 0.0
55 ; 2.749588280025968E7 ; 1.2088058101824353E9 ; 1.4480987541356747E9 ; 5.669368673248273E10 ; 0.0
56 ; 2.748712623029701E7 ; 1.2088628454732108E9 ; 1.4755946369359343E9 ; 5.790249254266516E10 ; 0.0
57 ; 2.74895828523088E7 ; 1.2089205943559325E9 ; 1.5030817631662314E9 ; 5.9111355388138374E10 ; 0.0
58 ; 2.747868448629141E7 ; 1.2089790352657034E9 ; 1.5305713460185401E9 ; 6.032027598249431E10 ; 0.0
59 ; 2.7472682521110877E7 ; 1.2090381470440545E9 ; 1.5580500305048316E9 ; 6.152925501776001E10 ; 0.0
60 ; 2.7461622321092673E7 ; 1.2090979089427667E9 ; 1.5855227130259423E9 ; 6.273829316480406E10 ; 0.0
61 ; 2.745783332422889E7 ; 1.2091583006263564E9 ; 1.612984335347035E9 ; 6.3947391073746826E10 ; 0.0
62 ; 2.7448374444574498E7 ; 1.2092193021733406E9 ; 1.640442168671264E9 ; 6.5156549374373184E10 ; 0.0
63 ; 2.743953268178876E7 ; 1.2092808940763788E9 ; 1.6678905431158385E9 ; 6.6365768676546524E10 ; 0.0
64 ; 2.7435400468351968E7 ; 1.2093430572413988E9 ; 1.6953300757976272E9 ; 6.75750495706229E10 ; 0.0
65 ; 2.7416767979886036E7 ; 1.2094057729858003E9 ; 1.7227654762659793E9 ; 6.87843926278643E10 ; 0.0
66 ; 2.7408102647356268E7 ; 1.2094690230358245E9 ; 1.7501822442458653E9 ; 6.99937984008501E10 ; 0.0
67 ; 2.739848042684957E7 ; 1.209532789523179E9 ; 1.7775903468932216E9 ; 7.120326742388593E10 ; 0.0
68 ; 2.7389040803337462E7 ; 1.2095970549809961E9 ; 1.8049888273200712E9 ; 7.24128002134091E10 ; 0.0
69 ; 2.738709569362534E7 ; 1.2096618023391984E9 ; 1.8323778681234088E9 ; 7.36223972683901E10 ; 0.0
70 ; 2.7371938075103447E7 ; 1.2097270149193459E9 ; 1.8597649638170342E9 ; 7.483205907072931E10 ; 0.0
71 ; 2.7359588509004213E7 ; 1.2097926764290273E9 ; 1.8871369018921378E9 ; 7.604178608564865E10 ; 0.0
72 ; 2.735046048624696E7 ; 1.2098587709558551E9 ; 1.914496490401142E9 ; 7.725157876207768E10 ; 0.0
73 ; 2.7337853862785853E7 ; 1.209925282961124E9 ; 1.941846950887389E9 ; 7.846143753303354E10 ; 0.0
74 ; 2.7323589369667064E7 ; 1.209992197273181E9 ; 1.9691848047501748E9 ; 7.967136281599466E10 ; 0.0
75 ; 2.731174250274823E7 ; 1.2100594990805569E9 ; 1.9965083941198418E9 ; 8.088135501326784E10 ; 0.0
76 ; 2.7304686892939378E7 ; 1.2101271739249036E9 ; 2.02382013662259E9 ; 8.209141451234839E10 ; 0.0
77 ; 2.728557877984471E7 ; 1.2101952076937723E9 ; 2.0511248235155294E9 ; 8.330154168627328E10 ; 0.0
78 ; 2.726067909881878E7 ; 1.2102635866132753E9 ; 2.0784104022953742E9 ; 8.451173689396706E10 ; 0.0
79 ; 2.723026155021002E7 ; 1.2103322972406604E9 ; 2.105671081394193E9 ; 8.572200048058034E10 ; 0.0
80 ; 2.719715552942383E7 ; 1.2104013264568293E9 ; 2.132901342944403E9 ; 8.6932332777821E10 ; 0.0
81 ; 2.7179429998878863E7 ; 1.2104706614588265E9 ; 2.160098498473827E9 ; 8.814273410427783E10 ; 0.0
82 ; 2.7149565366192788E7 ; 1.2105402897523217E9 ; 2.187277928472706E9 ; 8.935320476573666E10 ; 0.0
83 ; 2.7120594274011046E7 ; 1.2106101991441102E9 ; 2.2144274938388987E9 ; 9.056374505548898E10 ; 0.0
84 ; 2.7102647667601373E7 ; 1.2106803777346501E9 ; 2.24154808811291E9 ; 9.177435525463309E10 ; 0.0
85 ; 2.7068949618867908E7 ; 1.2107508139106507E9 ; 2.2686507357805114E9 ; 9.298503563236774E10 ; 0.0
86 ; 2.7042705097509123E7 ; 1.21082149633773E9 ; 2.2957196853993793E9 ; 9.419578644627838E10 ; 0.0
87 ; 2.7010541216303132E7 ; 1.2108924139531543E9 ; 2.322762390496888E9 ; 9.54066079426161E10 ; 0.0
88 ; 2.697929812998745E7 ; 1.2109635559586723E9 ; 2.3497729317131915E9 ; 9.661750035656926E10 ; 0.0
89 ; 2.6954162670429338E7 ; 1.2110349118134494E9 ; 2.3767522298431787E9 ; 9.782846391252794E10 ; 0.0
90 ; 2.6911963538089268E7 ; 1.21110647122712E9 ; 2.403706392513608E9 ; 9.903949882434138E10 ; 0.0
91 ; 2.688692344951324E7 ; 1.211178224152953E9 ; 2.4306183560516973E9 ; 1.0025060529556851E11 ; 0.0
92 ; 2.686169813881598E7 ; 1.2112501607811477E9 ; 2.4575052795012107E9 ; 1.0146178351972147E11 ; 0.0
93 ; 2.6824808606525432E7 ; 1.211322271532261E9 ; 2.4843669776400266E9 ; 1.0267303368050261E11 ; 0.0
94 ; 2.6795154775546085E7 ; 1.211394547050766E9 ; 2.511191786246552E9 ; 1.0388435595203487E11 ; 0.0
95 ; 2.6767537859237805E7 ; 1.211466978198754E9 ; 2.537986941022098E9 ; 1.0509575049908563E11 ; 0.0
96 ; 2.672976070037886E7 ; 1.211539556049774E9 ; 2.5647544788813357E9 ; 1.063072174772844E11 ; 0.0
97 ; 2.669887927931269E7 ; 1.2116122718828168E9 ; 2.5914842395817146E9 ; 1.0751875703333417E11 ; 0.0
98 ; 2.6671811429162987E7 ; 1.211685117176444E9 ; 2.6181831188610272E9 ; 1.0873036930521698E11 ; 0.0
99 ; 2.6637282004524227E7 ; 1.2117580836030588E9 ; 2.64485493029019E9 ; 1.0994205442239342E11 ; 0.0
100 ; 2.659900560652029E7 ; 1.2118311630233257E9 ; 2.6714922122947145E9 ; 1.1115381250599648E11 ; 0.0
101 ; 2.6568971731480867E7 ; 1.2119043474807298E9 ; 2.6980912179012346E9 ; 1.123656436690198E11 ; 0.0
102 ; 2.652976304806395E7 ; 1.2119776291962843E9 ; 2.7246601896327157E9 ; 1.1357754801650053E11 ; 0.0
103 ; 2.6492749446613222E7 ; 1.2120510005633779E9 ; 2.7511899526807795E9 ; 1.1478952564569682E11 ; 0.0
104 ; 2.6467543821426306E7 ; 1.2121244541427631E9 ; 2.777682702127393E9 ; 1.1600157664626021E11 ; 0.0
105 ; 2.642861063525343E7 ; 1.212197982657687E9 ; 2.804150245948819E9 ; 1.1721370110040297E11 ; 0.0
106 ; 2.639192765017838E7 ; 1.2122715789891536E9 ; 2.8305788565840726E9 ; 1.1842589908306065E11 ; 0.0
107 ; 2.6357643818579976E7 ; 1.212345236171329E9 ; 2.856970784234251E9 ; 1.196381706620498E11 ; 0.0
108 ; 2.6318713040090956E7 ; 1.212418947387073E9 ; 2.883328428052831E9 ; 1.2085051589822113E11 ; 0.0
109 ; 2.628833099661532E7 ; 1.2124927059636064E9 ; 2.909647141092922E9 ; 1.220629348456082E11 ; 0.0
110 ; 2.624159306469214E7 ; 1.2125665053683016E9 ; 2.9359354720895376E9 ; 1.2327542755157181E11 ; 0.0
111 ; 2.6211210738121413E7 ; 1.2126403392046034E9 ; 2.9621770651542296E9 ; 1.2448799405694011E11 ; 0.0
112 ; 2.617789672797425E7 ; 1.2127142012080693E9 ; 2.988388275892351E9 ; 1.2570063439614471E11 ; 0.0
113 ; 2.61338170845977E7 ; 1.212788085242531E9 ; 3.0145661726203256E9 ; 1.2691334859735278E11 ; 0.0
114 ; 2.609613504548306E7 ; 1.2128619852963717E9 ; 3.040699989704923E9 ; 1.2812613668259532E11 ; 0.0
115 ; 2.606064002763291E7 ; 1.2129358954789202E9 ; 3.0667961247504063E9 ; 1.293389986678917E11 ; 0.0
116 ; 2.6025497528543133E7 ; 1.213009810016954E9 ; 3.092856764778039E9 ; 1.3055193456337062E11 ; 0.0
117 ; 2.5977708460582662E7 ; 1.2130837232513108E9 ; 3.118882262306582E9 ; 1.3176494437338757E11 ; 0.0
118 ; 2.5936210480744533E7 ; 1.213157629633609E9 ; 3.1448599707671647E9 ; 1.3297802809663889E11 ; 0.0
119 ; 2.5900961657595184E7 ; 1.213231523723066E9 ; 3.170796181247909E9 ; 1.3419118572627249E11 ; 0.0
120 ; 2.586355657141321E7 ; 1.2133054001834211E9 ; 3.196697142905504E9 ; 1.3540441724999556E11 ; 0.0
121 ; 2.581891244447447E7 ; 1.213379253779951E9 ; 3.2225606994769173E9 ; 1.3661772265017899E11 ; 0.0
122 ; 2.5777871448954377E7 ; 1.2134530793765852E9 ; 3.248379611921392E9 ; 1.3783110190395892E11 ; 0.0
123 ; 2.5736345322307386E7 ; 1.2135268719331074E9 ; 3.2741574833703465E9 ; 1.390445549833355E11 ; 0.0
124 ; 2.5691172912788432E7 ; 1.2136006265024495E9 ; 3.299893828692654E9 ; 1.4025808185526862E11 ; 0.0
125 ; 2.564880339591801E7 ; 1.2136743382280705E9 ; 3.3255850016054425E9 ; 1.4147168248177106E11 ; 0.0
126 ; 2.5616883358072255E7 ; 1.2137480023414207E9 ; 3.3512338050013604E9 ; 1.426853568199991E11 ; 0.0
127 ; 2.5566486628443155E7 ; 1.2138216141594832E9 ; 3.3768506883594327E9 ; 1.4389910482234055E11 ; 0.0
128 ; 2.5522596113833345E7 ; 1.2138951690823991E9 ; 3.402417174987876E9 ; 1.4511292643650003E11 ; 0.0
129 ; 2.547549777817433E7 ; 1.2139686625911655E9 ; 3.4279397711017094E9 ; 1.4632682160558243E11 ; 0.0
130 ; 2.5426206522666477E7 ; 1.214042090245409E9 ; 3.453415268879884E9 ; 1.4754079026817358E11 ; 0.0
131 ; 2.5374464209440276E7 ; 1.2141154476812289E9 ; 3.47884147540255E9 ; 1.48754832358419E11 ; 0.0
132 ; 2.5313927647346247E7 ; 1.2141887306091118E9 ; 3.5042159396119905E9 ; 1.4996894780610025E11 ; 0.0
133 ; 2.526599013509188E7 ; 1.214261934811913E9 ; 3.5295298672593365E9 ; 1.5118313653670935E11 ; 0.0
134 ; 2.520092272205119E7 ; 1.2143350561429007E9 ; 3.5547958573944283E9 ; 1.5239739847152127E11 ; 0.0
135 ; 2.514365285310217E7 ; 1.2144080905238662E9 ; 3.5799967801164794E9 ; 1.5361173352766418E11 ; 0.0
136 ; 2.5081313284758084E7 ; 1.2144810339432926E9 ; 3.6051404329695816E9 ; 1.5482614161818805E11 ; 0.0
137 ; 2.502895040095929E7 ; 1.2145538824545822E9 ; 3.6302217462543397E9 ; 1.5604062265213135E11 ; 0.0
138 ; 2.4961186520282507E7 ; 1.214626632174344E9 ; 3.655250696655299E9 ; 1.5725517653458594E11 ; 0.0
139 ; 2.4903925035812266E7 ; 1.2146992792807317E9 ; 3.680211883175582E9 ; 1.5846980316676028E11 ; 0.0
140 ; 2.4849925146432914E7 ; 1.214771820011838E9 ; 3.7051158082113943E9 ; 1.5968450244604102E11 ; 0.0
141 ; 2.478399581736284E7 ; 1.2148442506641402E9 ; 3.729965733357827E9 ; 1.6089927426605286E11 ; 0.0
142 ; 2.4728212442515314E7 ; 1.2149165675909953E9 ; 3.75474972917519E9 ; 1.62114118516717E11 ; 0.0
143 ; 2.4667207160195872E7 ; 1.2149887672011812E9 ; 3.7794779416177053E9 ; 1.63329035084308E11 ; 0.0
144 ; 2.4600863683869507E7 ; 1.2150608459574895E9 ; 3.804145148777901E9 ; 1.645440238515092E11 ; 0.0
145 ; 2.456526242733418E7 ; 1.2151328003753574E9 ; 3.8287460124617705E9 ; 1.6575908469746667E11 ; 0.0
146 ; 2.4516250457832478E7 ; 1.2152046270215476E9 ; 3.853311274889105E9 ; 1.6697421749784204E11 ; 0.0
147 ; 2.4473238364734627E7 ; 1.2152763225128684E9 ; 3.877827525346937E9 ; 1.681894221248636E11 ; 0.0
148 ; 2.443025624344823E7 ; 1.2153478835149345E9 ; 3.902300763711672E9 ; 1.6940469844737646E11 ; 0.0
149 ; 2.437762064824056E7 ; 1.2154193067409687E9 ; 3.92673101995512E9 ; 1.706200463308914E11 ; 0.0
150 ; 2.433569197224035E7 ; 1.2154905889506388E9 ; 3.9511086406033607E9 ; 1.7183546563763235E11 ; 0.0
151 ; 2.428564481355948E7 ; 1.2155617269489346E9 ; 3.975444332575601E9 ; 1.73050956226583E11 ; 0.0
152 ; 2.4241326218567178E7 ; 1.2156327175850778E9 ; 3.9997299773891606E9 ; 1.7426651795353195E11 ; 0.0
153 ; 2.420086786469888E7 ; 1.2157035577514682E9 ; 4.023971303607728E9 ; 1.7548215067111703E11 ; 0.0
154 ; 2.4153350376626864E7 ; 1.2157742443826613E9 ; 4.048172171472427E9 ; 1.766978542288685E11 ; 0.0
155 ; 2.4108122940731004E7 ; 1.2158447744543805E9 ; 4.072325521849054E9 ; 1.7791362847325116E11 ; 0.0
156 ; 2.4061382433523364E7 ; 1.2159151449825578E9 ; 4.096433644789785E9 ; 1.7912947324770554E11 ; 0.0
157 ; 2.401627063373372E7 ; 1.215985353022406E9 ; 4.120495027223308E9 ; 1.8034538839268808E11 ; 0.0
158 ; 2.397264207067841E7 ; 1.2160553956675203E9 ; 4.144511297857042E9 ; 1.8156137374571048E11 ; 0.0
159 ; 2.3921175443724796E7 ; 1.2161252700490065E9 ; 4.16848393992772E9 ; 1.82777429141378E11 ; 0.0
160 ; 2.38801439469537E7 ; 1.2161949733346374E9 ; 4.1924051153714447E9 ; 1.83993554411427E11 ; 0.0
161 ; 2.383748786392861E7 ; 1.216264502728036E9 ; 4.2162852593183985E9 ; 1.8520974938476163E11 ; 0.0
162 ; 2.3790867931858905E7 ; 1.2163338554678826E9 ; 4.2401227471823273E9 ; 1.8642601388748965E11 ; 0.0
163 ; 2.374735417379562E7 ; 1.2164030288271475E9 ; 4.2639136151141863E9 ; 1.8764234774295755E11 ; 0.0
164 ; 2.3694518588081177E7 ; 1.2164720201123471E9 ; 4.287660969287982E9 ; 1.888587507717847E11 ; 0.0
165 ; 2.36488013246474E7 ; 1.2165408266628242E9 ; 4.311355487876063E9 ; 1.9007522279189703E11 ; 0.0
166 ; 2.3598232961920436E7 ; 1.216609445850047E9 ; 4.33500428920071E9 ; 1.9129176361855984E11 ; 0.0
167 ; 2.3554455542964328E7 ; 1.2166778750769339E9 ; 4.358602522162631E9 ; 1.9250837306440988E11 ; 0.0
168 ; 2.3511788625914432E7 ; 1.2167461117771974E9 ; 4.382156977705595E9 ; 1.9372505093948682E11 ; 0.0
169 ; 2.3463548156637624E7 ; 1.216814153414706E9 ; 4.40566876633151E9 ; 1.94941797051264E11 ; 0.0
170 ; 2.3410786591286145E7 ; 1.2168819974828687E9 ; 4.429132314488147E9 ; 1.961586112046787E11 ; 0.0
171 ; 2.337023641478839E7 ; 1.2169496415040376E9 ; 4.4525431010794325E9 ; 1.973754932021616E11 ; 0.0
172 ; 2.330686914619058E7 ; 1.2170170830289266E9 ; 4.475913337494221E9 ; 1.9859244284366562E11 ; 0.0
173 ; 2.327903165181978E7 ; 1.2170843196360505E9 ; 4.499220206640411E9 ; 1.9980945992669455E11 ; 0.0
174 ; 2.3243790757067367E7 ; 1.2171513489311786E9 ; 4.522499238292232E9 ; 2.010265442463306E11 ; 0.0
175 ; 2.3200028241553575E7 ; 1.2172181685468073E9 ; 4.545743029049299E9 ; 2.0224369559526178E11 ; 0.0
176 ; 2.316461971130096E7 ; 1.2172847761416476E9 ; 4.568943057290853E9 ; 2.034609137638086E11 ; 0.0
177 ; 2.3118318204135597E7 ; 1.2173511694001255E9 ; 4.592107677002153E9 ; 2.0467819853995026E11 ; 0.0
178 ; 2.308515623148285E7 ; 1.217417346031904E9 ; 4.615225995206289E9 ; 2.0589554970935037E11 ; 0.0
179 ; 2.30412715560773E7 ; 1.2174833037714097E9 ; 4.638311151437772E9 ; 2.0711296705538226E11 ; 0.0
180 ; 2.3003270537606698E7 ; 1.2175490403773851E9 ; 4.661352422993849E9 ; 2.083304503591537E11 ; 0.0
181 ; 2.2969298964465573E7 ; 1.2176145536324425E9 ; 4.684355693531455E9 ; 2.0954799939953107E11 ; 0.0
182 ; 2.2931230577587135E7 ; 1.2176798413426416E9 ; 4.70732499249592E9 ; 2.107656139531635E11 ; 0.0
183 ; 2.2889842764557526E7 ; 1.2177449013370724E9 ; 4.730256223073507E9 ; 2.1198329379450616E11 ; 0.0
184 ; 2.284996081845809E7 ; 1.2178097314674535E9 ; 4.753146065838065E9 ; 2.1320103869584323E11 ; 0.0
185 ; 2.2817102539879136E7 ; 1.2178743296077428E9 ; 4.775996026656524E9 ; 2.144188484273107E11 ; 0.0
186 ; 2.2772482956100266E7 ; 1.2179386936537578E9 ; 4.798813129196403E9 ; 2.1563672275691846E11 ; 0.0
187 ; 2.273870998123044E7 ; 1.218002821522809E9 ; 4.821585612152503E9 ; 2.168546614505722E11 ; 0.0
188 ; 2.2696623496813655E7 ; 1.218066711153343E9 ; 4.844324322133734E9 ; 2.18072664272095E11 ; 0.0
189 ; 2.2654453054035384E7 ; 1.2181303605045953E9 ; 4.867020945630548E9 ; 2.1929073098324835E11 ; 0.0
190 ; 2.2627944237082407E7 ; 1.2181937675562558E9 ; 4.889675398684583E9 ; 2.2050886134375296E11 ; 0.0
191 ; 2.2586278459676787E7 ; 1.2182569303081422E9 ; 4.912303342921665E9 ; 2.217270551113092E11 ; 0.0
192 ; 2.254284351633536E7 ; 1.2183198467798827E9 ; 4.934889621381342E9 ; 2.2294531204161734E11 ; 0.0
193 ; 2.2504405054720443E7 ; 1.2183825150106094E9 ; 4.957432464897677E9 ; 2.2416363188839722E11 ; 0.0
194 ; 2.246239477733014E7 ; 1.2184449330586593E9 ; 4.979936869952398E9 ; 2.2538201440340784E11 ; 0.0
195 ; 2.2426001430852287E7 ; 1.218507099001285E9 ; 5.002399264729729E9 ; 2.266004593364665E11 ; 0.0
