CSV File for the Network on Day 177
1 - Minute m 
2 - Power Consumed at minute m 
3 - Power Produced at minute m 
4 - Energy Consumed since the beginning of the day 
5 - Energy Produced since the beginning of the day 
6 - Energy Lost since the beginning of the day 
 
0 ; 1.000664794357314E7 ; 6.346478372617507E8 ; 0.0 ; 0.0 ; 0.0
1 ; 1.0043823483324086E7 ; 6.355583536995674E8 ; 1.000664794357314E7 ; 6.346478372617507E8 ; 0.0
2 ; 1.0074569519701563E7 ; 6.383222857349806E8 ; 2.0050471426897228E7 ; 1.270206190961318E9 ; 0.0
3 ; 1.0124539955173224E7 ; 6.429396522809135E8 ; 3.012504094659879E7 ; 1.9085284766962986E9 ; 0.0
4 ; 1.0173138103928175E7 ; 6.494104703260998E8 ; 4.0249580901772015E7 ; 2.551468128977212E9 ; 0.0
5 ; 1.0239102016565915E7 ; 6.577347548277488E8 ; 5.0422719005700186E7 ; 3.200878599303312E9 ; 0.0
6 ; 1.0326494991708644E7 ; 6.679125186149637E8 ; 6.0661821022266105E7 ; 3.8586133541310606E9 ; 0.0
7 ; 1.0450678814904943E7 ; 6.799437723043392E8 ; 7.098831601397476E7 ; 4.526525872746024E9 ; 0.0
8 ; 1.0634571634597283E7 ; 6.938285242290198E8 ; 8.14389948288797E7 ; 5.206469645050364E9 ; 0.0
9 ; 1.090863413623407E7 ; 7.095667803823166E8 ; 9.207356646347699E7 ; 5.900298169279384E9 ; 0.0
10 ; 1.1342891124047196E7 ; 7.271585443767761E8 ; 1.0298220059971106E8 ; 6.6098649496617E9 ; 0.0
11 ; 1.2019815793005275E7 ; 7.466038174193538E8 ; 1.1432509172375825E8 ; 7.337023494038476E9 ; 0.0
12 ; 1.3131412010551058E7 ; 7.679025983030939E8 ; 1.2634490751676352E8 ; 8.083627311457829E9 ; 0.0
13 ; 1.4189128331952801E7 ; 7.910548834154503E8 ; 1.3947631952731457E8 ; 8.851529909760923E9 ; 0.0
14 ; 1.4316668218630355E7 ; 8.160606667631118E8 ; 1.5366544785926738E8 ; 9.642584793176374E9 ; 0.0
15 ; 1.4356682324906677E7 ; 8.42919940012934E8 ; 1.6798211607789773E8 ; 1.0458645459939486E10 ; 0.0
16 ; 1.4404278325218463E7 ; 8.71632692548322E8 ; 1.823387984028044E8 ; 1.130156539995242E10 ; 0.0
17 ; 1.444891482237254E7 ; 9.021989115401728E8 ; 1.9674307672802287E8 ; 1.2173198092500742E10 ; 0.0
18 ; 1.4499472149742277E7 ; 9.346185820312767E8 ; 2.1119199155039543E8 ; 1.3075397004040915E10 ; 0.0
19 ; 1.4545002774170503E7 ; 9.688916870329007E8 ; 2.256914637001377E8 ; 1.4010015586072191E10 ; 0.0
20 ; 1.4597214219339823E7 ; 1.0050182076321208E9 ; 2.402364664743082E8 ; 1.4978907273105091E10 ; 0.0
21 ; 1.4644702908134308E7 ; 1.0429981231083746E9 ; 2.54833680693648E8 ; 1.5983925480737211E10 ; 0.0
22 ; 1.4690517825918227E7 ; 1.082831411057622E9 ; 2.694783836017823E8 ; 1.7026923603845585E10 ; 0.0
23 ; 1.4736356427012406E7 ; 1.1245180475224752E9 ; 2.841689014277005E8 ; 1.8109755014903206E10 ; 0.0
24 ; 1.4790516952629527E7 ; 1.16805800712666E9 ; 2.989052578547129E8 ; 1.9234273062425682E10 ; 0.0
25 ; 1.4837136229412356E7 ; 1.2055795086013043E9 ; 3.136957748073424E8 ; 2.040233106955234E10 ; 0.0
26 ; 1.4887222579480782E7 ; 1.2056038111446903E9 ; 3.285329110367548E8 ; 2.1607910578153645E10 ; 0.0
27 ; 1.4927270186024219E7 ; 1.2056295017097943E9 ; 3.4342013361623555E8 ; 2.2813514389298336E10 ; 0.0
28 ; 1.4974900151177704E7 ; 1.2056565506214476E9 ; 3.583474038022598E8 ; 2.401914389100813E10 ; 0.0
29 ; 1.5016537227070967E7 ; 1.2056849274695334E9 ; 3.733223039534375E8 ; 2.5224800441629578E10 ; 0.0
30 ; 1.506744967248178E7 ; 1.2057146012388468E9 ; 3.883388411805085E8 ; 2.643048536909911E10 ; 0.0
31 ; 1.5105329332871504E7 ; 1.205745540434156E9 ; 4.0340629085299027E8 ; 2.7636199970337955E10 ; 0.0
32 ; 1.515849816731602E7 ; 1.2057777131997018E9 ; 4.1851162018586177E8 ; 2.884194551077211E10 ; 0.0
33 ; 1.5191905915946783E7 ; 1.2058110874324973E9 ; 4.336701183531778E8 ; 3.0047723223971813E10 ; 0.0
34 ; 1.5235660145731349E7 ; 1.2058456308889437E9 ; 4.4886202426912457E8 ; 3.1253534311404312E10 ; 0.0
35 ; 1.528057763349289E7 ; 1.2058813112844093E9 ; 4.640976844148559E8 ; 3.2459379942293255E10 ; 0.0
36 ; 1.5322235584186584E7 ; 1.2059180963855429E9 ; 4.793782620483488E8 ; 3.3665261253577663E10 ; 0.0
37 ; 1.5353878063268855E7 ; 1.2059559540952075E9 ; 4.9470049763253534E8 ; 3.48711793499632E10 ; 0.0
38 ; 1.5388914880552873E7 ; 1.2059948525300202E9 ; 5.100543756958042E8 ; 3.607713530405841E10 ; 0.0
39 ; 1.5417282579626545E7 ; 1.206034760090577E9 ; 5.2544329057635707E8 ; 3.728313015658843E10 ; 0.0
40 ; 1.5461900652048439E7 ; 1.2060756455245128E9 ; 5.408605731559836E8 ; 3.848916491667901E10 ; 0.0
41 ; 1.5487187415450161E7 ; 1.206117477982617E9 ; 5.56322473808032E8 ; 3.969524056220352E10 ; 0.0
42 ; 1.5512730310141508E7 ; 1.2061602270682714E9 ; 5.718096612234823E8 ; 4.090135804018614E10 ; 0.0
43 ; 1.5543915529178303E7 ; 1.206203862880524E9 ; 5.873223915336238E8 ; 4.210751826725441E10 ; 0.0
44 ; 1.5568836493232515E7 ; 1.2062483560511396E9 ; 6.028663070628021E8 ; 4.331372213013493E10 ; 0.0
45 ; 1.5602590312814038E7 ; 1.20629367777599E9 ; 6.184351435560346E8 ; 4.451997048618607E10 ; 0.0
46 ; 1.5618344933419418E7 ; 1.206339799841166E9 ; 6.340377338688486E8 ; 4.572626416396207E10 ; 0.0
47 ; 1.5638214174503034E7 ; 1.2063866946441894E9 ; 6.49656078802268E8 ; 4.693260396380323E10 ; 0.0
48 ; 1.5660826669255417E7 ; 1.2064343352107124E9 ; 6.652942929767711E8 ; 4.813899065844742E10 ; 0.0
49 ; 1.5677741957538623E7 ; 1.2064826952070866E9 ; 6.809551196460265E8 ; 4.934542499365813E10 ; 0.0
50 ; 1.5693131007093364E7 ; 1.2065317489491663E9 ; 6.966328616035651E8 ; 5.055190768886521E10 ; 0.0
51 ; 1.5698639322802573E7 ; 1.2065814714077091E9 ; 7.123259926106584E8 ; 5.175843943781438E10 ; 0.0
52 ; 1.5720283291316647E7 ; 1.2066318382107148E9 ; 7.28024631933461E8 ; 5.2965020909222084E10 ; 0.0
53 ; 1.5731615413858369E7 ; 1.2066828256430283E9 ; 7.437449152247776E8 ; 5.41716527474328E10 ; 0.0
54 ; 1.574554004617289E7 ; 1.206734410643516E9 ; 7.59476530638636E8 ; 5.537833557307583E10 ; 0.0
55 ; 1.5752300418036787E7 ; 1.2067865708000991E9 ; 7.752220706848089E8 ; 5.6585069983719345E10 ; 0.0
56 ; 1.5769864184317004E7 ; 1.2068392843429186E9 ; 7.909743711028457E8 ; 5.779185655451945E10 ; 0.0
57 ; 1.5779530403701026E7 ; 1.2068925301358755E9 ; 8.067442352871627E8 ; 5.8998695838862366E10 ; 0.0
58 ; 1.5791009162000172E7 ; 1.2069462876667774E9 ; 8.225237656908637E8 ; 6.020558836899824E10 ; 0.0
59 ; 1.5802986637539353E7 ; 1.2070005370363004E9 ; 8.383147748528639E8 ; 6.1412534656665016E10 ; 0.0
60 ; 1.5808266895710733E7 ; 1.20705525894596E9 ; 8.541177614904033E8 ; 6.261953519370132E10 ; 0.0
61 ; 1.5823782436562762E7 ; 1.2071104346852608E9 ; 8.69926028386114E8 ; 6.382659045264728E10 ; 0.0
62 ; 1.5838457438886523E7 ; 1.2071660461181858E9 ; 8.857498108226768E8 ; 6.5033700887332535E10 ; 0.0
63 ; 1.5844882604709752E7 ; 1.2072220756691647E9 ; 9.015882682615633E8 ; 6.624086693345072E10 ; 0.0
64 ; 1.5850424470794551E7 ; 1.2072785063086476E9 ; 9.17433150866273E8 ; 6.744808900911989E10 ; 0.0
65 ; 1.5864245151611492E7 ; 1.2073353215383968E9 ; 9.332835753370676E8 ; 6.8655367515428535E10 ; 0.0
66 ; 1.5866333799469255E7 ; 1.207392505376597E9 ; 9.49147820488679E8 ; 6.986270283696693E10 ; 0.0
67 ; 1.5875593007430365E7 ; 1.2074500423428707E9 ; 9.650141542881483E8 ; 7.107009534234354E10 ; 0.0
68 ; 1.5889981734005801E7 ; 1.2075079174432793E9 ; 9.808897472955786E8 ; 7.22775453846864E10 ; 0.0
69 ; 1.5897035060126854E7 ; 1.2075661161553702E9 ; 9.967797290295844E8 ; 7.348505330212968E10 ; 0.0
70 ; 1.5908749931121923E7 ; 1.207624624413338E9 ; 1.0126767640897113E9 ; 7.469261941828505E10 ; 0.0
71 ; 1.5914796263030492E7 ; 1.2076834285933394E9 ; 1.0285855140208333E9 ; 7.59002440426984E10 ; 0.0
72 ; 1.5917351071961248E7 ; 1.2077425154990149E9 ; 1.0445003102838638E9 ; 7.710792747129173E10 ; 0.0
73 ; 1.5928420486615755E7 ; 1.2078018723472445E9 ; 1.0604176613558251E9 ; 7.831566998679074E10 ; 0.0
74 ; 1.5934127146203917E7 ; 1.207861486754173E9 ; 1.0763460818424408E9 ; 7.952347185913799E10 ; 0.0
75 ; 1.5941650998044476E7 ; 1.2079213467215285E9 ; 1.0922802089886448E9 ; 8.073133334589215E10 ; 0.0
76 ; 1.594286216895651E7 ; 1.2079814406232529E9 ; 1.1082218599866893E9 ; 8.193925469261368E10 ; 0.0
77 ; 1.5948851201912533E7 ; 1.208041757192461E9 ; 1.1241647221556458E9 ; 8.314723613323694E10 ; 0.0
78 ; 1.5941778133120043E7 ; 1.2081022855087428E9 ; 1.1401135733575585E9 ; 8.43552778904294E10 ; 0.0
79 ; 1.593874304583016E7 ; 1.2081630149858127E9 ; 1.1560553514906785E9 ; 8.556338017593814E10 ; 0.0
80 ; 1.592749193824809E7 ; 1.2082239353595173E9 ; 1.1719940945365088E9 ; 8.677154319092395E10 ; 0.0
81 ; 1.5923793967292078E7 ; 1.2082850366762002E9 ; 1.187921586474757E9 ; 8.797976712628346E10 ; 0.0
82 ; 1.5911890141300518E7 ; 1.2083463092814293E9 ; 1.203845380442049E9 ; 8.918805216295966E10 ; 0.0
83 ; 1.5900332335585084E7 ; 1.2084077438090847E9 ; 1.2197572705833495E9 ; 9.039639847224109E10 ; 0.0
84 ; 1.5888521752533648E7 ; 1.2084693311708016E9 ; 1.2356576029189346E9 ; 9.160480621605017E10 ; 0.0
85 ; 1.5879982399299093E7 ; 1.208531062545772E9 ; 1.2515461246714683E9 ; 9.281327554722098E10 ; 0.0
86 ; 1.5874706783410467E7 ; 1.208592929370893E9 ; 1.2674261070707674E9 ; 9.402180660976675E10 ; 0.0
87 ; 1.5867720262583649E7 ; 1.2086549233312597E9 ; 1.283300813854178E9 ; 9.523039953913765E10 ; 0.0
88 ; 1.5856740010405812E7 ; 1.208717036350997E9 ; 1.2991685341167617E9 ; 9.64390544624689E10 ; 0.0
89 ; 1.58446623224691E7 ; 1.2087792605844204E9 ; 1.3150252741271675E9 ; 9.76477714988199E10 ; 0.0
90 ; 1.5825674357771128E7 ; 1.2088415884075198E9 ; 1.3308699364496365E9 ; 9.885655075940433E10 ; 0.0
91 ; 1.5814366921353236E7 ; 1.2089040124097588E9 ; 1.3466956108074076E9 ; 1.0006539234781184E11 ; 0.0
92 ; 1.5809374063400613E7 ; 1.2089665253861783E9 ; 1.362509977728761E9 ; 1.012742963602216E11 ; 0.0
93 ; 1.5789309096556785E7 ; 1.209029120329799E9 ; 1.3783193517921615E9 ; 1.0248326288560779E11 ; 0.0
94 ; 1.5786242355183411E7 ; 1.2090917904243119E9 ; 1.3941086608887184E9 ; 1.0369229200593759E11 ; 0.0
95 ; 1.5777774936006892E7 ; 1.2091545290370488E9 ; 1.4098949032439017E9 ; 1.0490138379636191E11 ; 0.0
96 ; 1.5759181583679544E7 ; 1.2092173297122223E9 ; 1.4256726781799085E9 ; 1.0611053832539896E11 ; 0.0
97 ; 1.5737614286604041E7 ; 1.2092801861644301E9 ; 1.441431859763588E9 ; 1.0731975565511118E11 ; 0.0
98 ; 1.5733308657542083E7 ; 1.2093430922724085E9 ; 1.4571694740501919E9 ; 1.085290358412756E11 ; 0.0
99 ; 1.5715453529417127E7 ; 1.2094060420730336E9 ; 1.4729027827077339E9 ; 1.0973837893354802E11 ; 0.0
100 ; 1.5700617565121392E7 ; 1.2094690297555559E9 ; 1.488618236237151E9 ; 1.1094778497562105E11 ; 0.0
101 ; 1.5683291485137148E7 ; 1.2095320496560621E9 ; 1.5043188538022723E9 ; 1.121572540053766E11 ; 0.0
102 ; 1.5672146827928327E7 ; 1.2095950962521563E9 ; 1.5200021452874095E9 ; 1.1336678605503267E11 ; 0.0
103 ; 1.5659785951616406E7 ; 1.2096581641578498E9 ; 1.5356742921153378E9 ; 1.1457638115128482E11 ; 0.0
104 ; 1.5647449332831938E7 ; 1.2097212481186566E9 ; 1.5513340780669541E9 ; 1.1578603931544267E11 ; 0.0
105 ; 1.56228961060514E7 ; 1.2097843430068798E9 ; 1.566981527399786E9 ; 1.1699576056356133E11 ; 0.0
106 ; 1.5610695281666927E7 ; 1.2098474438170886E9 ; 1.5826044235058374E9 ; 1.182055449065682E11 ; 0.0
107 ; 1.5594389281295292E7 ; 1.209910545661772E9 ; 1.5982151187875044E9 ; 1.194153923503853E11 ; 0.0
108 ; 1.557621545934781E7 ; 1.209973643767169E9 ; 1.6138095080687997E9 ; 1.2062530289604707E11 ; 0.0
109 ; 1.5557018252975706E7 ; 1.2100367334692621E9 ; 1.6293857235281475E9 ; 1.2183527653981424E11 ; 0.0
110 ; 1.5540391863284092E7 ; 1.21009981020993E9 ; 1.6449427417811232E9 ; 1.2304531327328351E11 ; 0.0
111 ; 1.5521418929854166E7 ; 1.2101628695332556E9 ; 1.6604831336444073E9 ; 1.2425541308349344E11 ; 0.0
112 ; 1.5503692504245298E7 ; 1.2102259070819783E9 ; 1.6760045525742614E9 ; 1.2546557595302669E11 ; 0.0
113 ; 1.5487116604357269E7 ; 1.2102889185940897E9 ; 1.6915082450785067E9 ; 1.2667580186010867E11 ; 0.0
114 ; 1.5467953153700601E7 ; 1.210351899899561E9 ; 1.706995361682864E9 ; 1.2788609077870276E11 ; 0.0
115 ; 1.5445171052040584E7 ; 1.2104148469172032E9 ; 1.7224633148365645E9 ; 1.2909644267860233E11 ; 0.0
116 ; 1.5428014576155715E7 ; 1.210477755651651E9 ; 1.737908485888605E9 ; 1.3030685752551953E11 ; 0.0
117 ; 1.5405275674162913E7 ; 1.210540622190464E9 ; 1.7533365004647608E9 ; 1.3151733528117119E11 ; 0.0
118 ; 1.539089669554858E7 ; 1.2106034427013435E9 ; 1.7687417761389236E9 ; 1.3272787590336165E11 ; 0.0
119 ; 1.5371881511186888E7 ; 1.2106662134294603E9 ; 1.7841326728344722E9 ; 1.3393847934606299E11 ; 0.0
120 ; 1.5344215854336096E7 ; 1.210728930694884E9 ; 1.799504554345659E9 ; 1.3514914555949245E11 ; 0.0
121 ; 1.5324925773466002E7 ; 1.2107915908901176E9 ; 1.814848770199995E9 ; 1.3635987449018733E11 ; 0.0
122 ; 1.530852624114656E7 ; 1.210854190477724E9 ; 1.8301736959734612E9 ; 1.3757066608107745E11 ; 0.0
123 ; 1.5290393041688437E7 ; 1.2109167259880488E9 ; 1.8454822222146077E9 ; 1.3878152027155518E11 ; 0.0
124 ; 1.5264151417219646E7 ; 1.21097919401703E9 ; 1.8607726152562962E9 ; 1.399924369975432E11 ; 0.0
125 ; 1.5235654529967599E7 ; 1.211041591224092E9 ; 1.8760367666735158E9 ; 1.4120341619156024E11 ; 0.0
126 ; 1.5218899123890853E7 ; 1.2111039143301244E9 ; 1.8912724212034833E9 ; 1.4241445778278433E11 ; 0.0
127 ; 1.5195905824605439E7 ; 1.2111661601155355E9 ; 1.9064913203273742E9 ; 1.4362556169711447E11 ; 0.0
128 ; 1.5169627987139657E7 ; 1.2112283254183822E9 ; 1.9216872261519797E9 ; 1.4483672785723E11 ; 0.0
129 ; 1.514865292227197E7 ; 1.2112904071325717E9 ; 1.9368568541391194E9 ; 1.460479561826484E11 ; 0.0
130 ; 1.5119419466669178E7 ; 1.2113524022061338E9 ; 1.9520055070613914E9 ; 1.4725924658978098E11 ; 0.0
131 ; 1.5081095526852954E7 ; 1.2114143076395547E9 ; 1.9671249265280604E9 ; 1.4847059899198712E11 ; 0.0
132 ; 1.504621239505966E7 ; 1.2114761204841802E9 ; 1.9822060220549133E9 ; 1.4968201329962668E11 ; 0.0
133 ; 1.5002153440107457E7 ; 1.2115378378406744E9 ; 1.9972522344499729E9 ; 1.5089348942011087E11 ; 0.0
134 ; 1.4961861625511905E7 ; 1.2115994568575404E9 ; 2.0122543878900802E9 ; 1.5210502725795154E11 ; 0.0
135 ; 1.4927401117238488E7 ; 1.2116609747296937E9 ; 2.027216249515592E9 ; 1.5331662671480908E11 ; 0.0
136 ; 1.488945152422252E7 ; 1.211722388697093E9 ; 2.0421436506328306E9 ; 1.545282876895388E11 ; 0.0
137 ; 1.485248277655527E7 ; 1.211783696043419E9 ; 2.0570331021570532E9 ; 1.5574001007823587E11 ; 0.0
138 ; 1.481267801505962E7 ; 1.2118448940948048E9 ; 2.0718855849336085E9 ; 1.569517937742793E11 ; 0.0
139 ; 1.4772285597629927E7 ; 1.2119059802186112E9 ; 2.0866982629486682E9 ; 1.581636386683741E11 ; 0.0
140 ; 1.4728046526411366E7 ; 1.2119669518222518E9 ; 2.1014705485462983E9 ; 1.593755446485927E11 ; 0.0
141 ; 1.46963178114977E7 ; 1.2120278063520565E9 ; 2.1161985950727096E9 ; 1.6058751160041498E11 ; 0.0
142 ; 1.4651743264551688E7 ; 1.21208854129218E9 ; 2.1308949128842072E9 ; 1.6179953940676703E11 ; 0.0
143 ; 1.4609970171929337E7 ; 1.2121491541635518E9 ; 2.145546656148759E9 ; 1.630116279480592E11 ; 0.0
144 ; 1.4567490188583817E7 ; 1.2122096425228586E9 ; 2.1601566263206882E9 ; 1.6422377710222275E11 ; 0.0
145 ; 1.4544623837788422E7 ; 1.2122700039615731E9 ; 2.174724116509272E9 ; 1.654359867447456E11 ; 0.0
146 ; 1.4522260515489534E7 ; 1.2123302361050086E9 ; 2.1892687403470607E9 ; 1.6664825674870718E11 ; 0.0
147 ; 1.4499068461223304E7 ; 1.212390336611416E9 ; 2.2037910008625503E9 ; 1.678605869848122E11 ; 0.0
148 ; 1.4468331208037628E7 ; 1.2124503031711082E9 ; 2.2182900693237734E9 ; 1.690729773214236E11 ; 0.0
149 ; 1.4448185019823134E7 ; 1.2125101335056176E9 ; 2.232758400531811E9 ; 1.7028542762459473E11 ; 0.0
150 ; 1.4427184925653573E7 ; 1.2125698253668845E9 ; 2.2472065855516343E9 ; 1.7149793775810034E11 ; 0.0
151 ; 1.4405161904470589E7 ; 1.2126293765364752E9 ; 2.261633770477288E9 ; 1.7271050758346722E11 ; 0.0
152 ; 1.4375403993143288E7 ; 1.2126887848248262E9 ; 2.276038932381758E9 ; 1.739231369600037E11 ; 0.0
153 ; 1.4342244007641155E7 ; 1.2127480480705154E9 ; 2.2904143363749013E9 ; 1.7513582574482852E11 ; 0.0
154 ; 1.432479678230535E7 ; 1.2128071641395614E9 ; 2.3047565803825426E9 ; 1.7634857379289905E11 ; 0.0
155 ; 1.4301497555375032E7 ; 1.212866130924745E9 ; 2.319081377164848E9 ; 1.775613809570386E11 ; 0.0
156 ; 1.4267749743322548E7 ; 1.2129249463449569E9 ; 2.333382874720223E9 ; 1.7877424708796335E11 ; 0.0
157 ; 1.424716278360897E7 ; 1.212983608344565E9 ; 2.3476506244635453E9 ; 1.7998717203430832E11 ; 0.0
158 ; 1.4220338002948605E7 ; 1.2130421148928084E9 ; 2.361897787247154E9 ; 1.812001556426529E11 ; 0.0
159 ; 1.4202037302789295E7 ; 1.2131004639832087E9 ; 2.376118125250103E9 ; 1.8241319775754572E11 ; 0.0
160 ; 1.4176031602273347E7 ; 1.213158653633004E9 ; 2.390320162552892E9 ; 1.8362629822152893E11 ; 0.0
161 ; 1.4146973088437438E7 ; 1.2132166818826E9 ; 2.4044961941551657E9 ; 1.8483945687516193E11 ; 0.0
162 ; 1.4130923355531253E7 ; 1.2132745467950454E9 ; 2.418643167243603E9 ; 1.8605267355704453E11 ; 0.0
163 ; 1.4095080399506507E7 ; 1.2133322464555173E9 ; 2.4327740905991344E9 ; 1.8726594810383957E11 ; 0.0
164 ; 1.4072347310848046E7 ; 1.2133897789708328E9 ; 2.446869170998641E9 ; 1.8847928035029507E11 ; 0.0
165 ; 1.4048665266947998E7 ; 1.2134471424689708E9 ; 2.4609415183094893E9 ; 1.896926701292659E11 ; 0.0
166 ; 1.4024991989341537E7 ; 1.2135043350986133E9 ; 2.4749901835764375E9 ; 1.9090611727173486E11 ; 0.0
167 ; 1.398902314817626E7 ; 1.2135613550287027E9 ; 2.489015175565779E9 ; 1.9211962160683347E11 ; 0.0
168 ; 1.3973320367231503E7 ; 1.2136182004480114E9 ; 2.5030041987139554E9 ; 1.9333318296186218E11 ; 0.0
169 ; 1.3943458188189404E7 ; 1.2136748695647292E9 ; 2.516977519081187E9 ; 1.9454680116231018E11 ; 0.0
170 ; 1.391582111373683E7 ; 1.213731360606062E9 ; 2.5309209772693763E9 ; 1.957604760318749E11 ; 0.0
171 ; 1.3892085454885513E7 ; 1.2137876718178453E9 ; 2.544836798383113E9 ; 1.9697420739248096E11 ; 0.0
172 ; 1.3860757377525726E7 ; 1.2138438014641714E9 ; 2.5587288838379984E9 ; 1.981879950642988E11 ; 0.0
173 ; 1.3840583893869234E7 ; 1.2138997478270266E9 ; 2.572589641215524E9 ; 1.9940183886576297E11 ; 0.0
174 ; 1.3817554916686138E7 ; 1.213955509205943E9 ; 2.5864302251093936E9 ; 2.0061573861359E11 ; 0.0
175 ; 1.3802416741413575E7 ; 1.2140110839176614E9 ; 2.6002477800260797E9 ; 2.0182969412279593E11 ; 0.0
176 ; 1.3775237861504743E7 ; 1.2140664702958033E9 ; 2.6140501967674932E9 ; 2.030437052067136E11 ; 0.0
177 ; 1.3757006384556185E7 ; 1.2141216666905565E9 ; 2.627825434628998E9 ; 2.042577716770094E11 ; 0.0
178 ; 1.3733409517414957E7 ; 1.21417667146837E9 ; 2.641582441013554E9 ; 2.0547189334369995E11 ; 0.0
179 ; 1.3713821396765804E7 ; 1.2142314830116577E9 ; 2.655315850530969E9 ; 2.0668607001516833E11 ; 0.0
180 ; 1.3701049468028653E7 ; 1.214286099718515E9 ; 2.669029671927735E9 ; 2.0790030149818E11 ; 0.0
181 ; 1.3683258301651318E7 ; 1.2143405200024405E9 ; 2.6827307213957634E9 ; 2.091145875978985E11 ; 0.0
182 ; 1.3662809548699908E7 ; 1.2143947422920697E9 ; 2.696413979697415E9 ; 2.1032892811790094E11 ; 0.0
183 ; 1.3638510589883912E7 ; 1.2144487650309181E9 ; 2.7100767892461147E9 ; 2.1154332286019302E11 ; 0.0
184 ; 1.3627634479909617E7 ; 1.2145025866771283E9 ; 2.7237152998359985E9 ; 2.1275777162522394E11 ; 0.0
185 ; 1.3604950619373545E7 ; 1.2145562057032306E9 ; 2.737342934315908E9 ; 2.1397227421190106E11 ; 0.0
186 ; 1.358149864011152E7 ; 1.2146096205959082E9 ; 2.7509478849352813E9 ; 2.1518683041760428E11 ; 0.0
187 ; 1.3558625945883324E7 ; 1.2146628298557696E9 ; 2.7645293835753927E9 ; 2.164014400382002E11 ; 0.0
188 ; 1.3539307777322521E7 ; 1.2147158319971313E9 ; 2.778088009521276E9 ; 2.1761610286805597E11 ; 0.0
189 ; 1.3522281590015475E7 ; 1.2147686255478044E9 ; 2.7916273172985983E9 ; 2.188308187000531E11 ; 0.0
190 ; 1.3498583590634998E7 ; 1.214821209048889E9 ; 2.8051495988886137E9 ; 2.200455873256009E11 ; 0.0
191 ; 1.3483017056381093E7 ; 1.214873581054576E9 ; 2.8186481824792485E9 ; 2.2126040853464978E11 ; 0.0
192 ; 1.3463509492185632E7 ; 1.2149257401319547E9 ; 2.8321311995356297E9 ; 2.2247528211570435E11 ; 0.0
193 ; 1.344933517496345E7 ; 1.2149776848608263E9 ; 2.8455947090278153E9 ; 2.236902078558363E11 ; 0.0
194 ; 1.342196401903217E7 ; 1.2150294138335233E9 ; 2.859044044202779E9 ; 2.2490518554069714E11 ; 0.0
195 ; 1.3408756670832908E7 ; 1.215080925654735E9 ; 2.872466008221811E9 ; 2.2612021495453067E11 ; 0.0
