CSV File for the Network on Day 108
1 - Minute m 
2 - Power Consumed at minute m 
3 - Power Produced at minute m 
4 - Energy Consumed since the beginning of the day 
5 - Energy Produced since the beginning of the day 
6 - Energy Lost since the beginning of the day 
 
0 ; 3.885115056659549E7 ; 6.353079772391573E8 ; 0.0 ; 0.0 ; 0.0
1 ; 3.888559756925401E7 ; 6.362188889509884E8 ; 3.885115056659549E7 ; 6.353079772391573E8 ; 0.0
2 ; 3.893494637858205E7 ; 6.389831855530133E8 ; 7.77367481358495E7 ; 1.2715268661901457E9 ; 0.0
3 ; 3.898244085717919E7 ; 6.436008824969933E8 ; 1.1667169451443157E8 ; 1.910510051743159E9 ; 0.0
4 ; 3.903472373387836E7 ; 6.500719936191895E8 ; 1.5565413537161076E8 ; 2.5541109342401524E9 ; 0.0
5 ; 3.91116389208859E7 ; 6.583965310675235E8 ; 1.9468885910548913E8 ; 3.2041829278593416E9 ; 0.0
6 ; 3.9202086712692365E7 ; 6.68574505236464E8 ; 2.3380049802637503E8 ; 3.862579458926865E9 ; 0.0
7 ; 3.93350207111555E7 ; 6.806059247104523E8 ; 2.730025847390674E8 ; 4.531153964163329E9 ; 0.0
8 ; 3.951836841837619E7 ; 6.944907962165719E8 ; 3.1233760545022285E8 ; 5.211759888873781E9 ; 0.0
9 ; 3.979841707007678E7 ; 7.10229124587081E8 ; 3.5185597386859906E8 ; 5.906250685090353E9 ; 0.0
10 ; 4.0236580519505374E7 ; 7.278209127322848E8 ; 3.916543909386758E8 ; 6.616479809677434E9 ; 0.0
11 ; 4.092927850886287E7 ; 7.472661616241181E8 ; 4.318909714581812E8 ; 7.3443007224097185E9 ; 0.0
12 ; 4.2038615683231965E7 ; 7.685648702906461E8 ; 4.7282024996704406E8 ; 8.091566884033836E9 ; 0.0
13 ; 4.3106879055536196E7 ; 7.917170358215632E8 ; 5.14858865650276E8 ; 8.860131754324482E9 ; 0.0
14 ; 4.322542998404041E7 ; 8.167226533846121E8 ; 5.579657447058122E8 ; 9.651848790146046E9 ; 0.0
15 ; 4.328058368800363E7 ; 8.435817162527087E8 ; 6.011911746898526E8 ; 1.0468571443530659E10 ; 0.0
16 ; 4.332833841984383E7 ; 8.722942158414117E8 ; 6.444717583778563E8 ; 1.1312153159783367E10 ; 0.0
17 ; 4.338350991040065E7 ; 9.028601417562525E8 ; 6.878000967977E8 ; 1.2184447375624779E10 ; 0.0
18 ; 4.343197777121218E7 ; 9.352794818493097E8 ; 7.311836067081007E8 ; 1.3087307517381031E10 ; 0.0
19 ; 4.348778007621294E7 ; 9.695522222843217E8 ; 7.746155844793129E8 ; 1.4022586999230341E10 ; 0.0
20 ; 4.353839015909658E7 ; 1.0056783476095275E9 ; 8.181033645555258E8 ; 1.4992139221514662E10 ; 0.0
21 ; 4.359476689327416E7 ; 1.0436578408373598E9 ; 8.616417547146224E8 ; 1.599781756912419E10 ; 0.0
22 ; 4.364269652039571E7 ; 1.08349068353006E9 ; 9.052365216078966E8 ; 1.704147540996155E10 ; 0.0
23 ; 4.3700648017449096E7 ; 1.1251768558902516E9 ; 9.488792181282923E8 ; 1.812496609349161E10 ; 0.0
24 ; 4.3751688539897464E7 ; 1.1687163368554814E9 ; 9.925798661457415E8 ; 1.9250142949381863E10 ; 0.0
25 ; 4.380576112803911E7 ; 1.2062373495848553E9 ; 1.0363315546856389E9 ; 2.0418859286237343E10 ; 0.0
26 ; 4.385206194687393E7 ; 1.2062611577799706E9 ; 1.080137315813678E9 ; 2.1625096635822197E10 ; 0.0
27 ; 4.3910095488910586E7 ; 1.2062863529349852E9 ; 1.123989377760552E9 ; 2.283135779360217E10 ; 0.0
28 ; 4.39558324230119E7 ; 1.2063129099181032E9 ; 1.1678994732494626E9 ; 2.4037644146537155E10 ; 0.0
29 ; 4.399987617377995E7 ; 1.2063408028312764E9 ; 1.2118553056724744E9 ; 2.5243957056455257E10 ; 0.0
30 ; 4.4055431506985016E7 ; 1.2063700051090362E9 ; 1.2558551818462543E9 ; 2.6450297859286533E10 ; 0.0
31 ; 4.4101020076502204E7 ; 1.206400489615243E9 ; 1.2999106133532393E9 ; 2.765666786439557E10 ; 0.0
32 ; 4.415480953081737E7 ; 1.2064322287371335E9 ; 1.3440116334297414E9 ; 2.886306835401081E10 ; 0.0
33 ; 4.419421097675762E7 ; 1.2064651944761302E9 ; 1.3881664429605587E9 ; 3.0069500582747944E10 ; 0.0
34 ; 4.424650929185353E7 ; 1.2064993585349536E9 ; 1.4323606539373162E9 ; 3.1275965777224075E10 ; 0.0
35 ; 4.429095990370765E7 ; 1.2065346924006634E9 ; 1.4766071632291696E9 ; 3.248246513575903E10 ; 0.0
36 ; 4.4327567722605735E7 ; 1.2065711674233308E9 ; 1.5208981231328773E9 ; 3.368899982815969E10 ; 0.0
37 ; 4.436890200562506E7 ; 1.206608754890108E9 ; 1.565225690855483E9 ; 3.489557099558302E10 ; 0.0
38 ; 4.4411279853505135E7 ; 1.206647426094546E9 ; 1.609594592861108E9 ; 3.610217975047313E10 ; 0.0
39 ; 4.445151326192901E7 ; 1.2066871524010625E9 ; 1.6540058727146132E9 ; 3.730882717656767E10 ; 0.0
40 ; 4.448146476926519E7 ; 1.2067279053045259E9 ; 1.6984573859765422E9 ; 3.8515514328968735E10 ; 0.0
41 ; 4.452676541346381E7 ; 1.206769656484973E9 ; 1.7429388507458074E9 ; 3.972224223427326E10 ; 0.0
42 ; 4.4550024725651875E7 ; 1.2068123778575191E9 ; 1.7874656161592712E9 ; 4.092901189075823E10 ; 0.0
43 ; 4.458170815737988E7 ; 1.2068560416175687E9 ; 1.8320156408849232E9 ; 4.213582426861575E10 ; 0.0
44 ; 4.461364804512087E7 ; 1.2069006202814565E9 ; 1.876597349042303E9 ; 4.334268031023332E10 ; 0.0
45 ; 4.464056126855357E7 ; 1.2069460867226834E9 ; 1.921210997087424E9 ; 4.454958093051478E10 ; 0.0
46 ; 4.466712561999818E7 ; 1.2069924142039366E9 ; 1.9658515583559775E9 ; 4.5756527017237465E10 ; 0.0
47 ; 4.468900615841903E7 ; 1.2070395764050918E9 ; 2.0105186839759758E9 ; 4.69635194314414E10 ; 0.0
48 ; 4.471062880571276E7 ; 1.207087547447414E9 ; 2.055207690134395E9 ; 4.817055900784649E10 ; 0.0
49 ; 4.473726332600496E7 ; 1.2071363019141855E9 ; 2.0999183189401076E9 ; 4.93776465552939E10 ; 0.0
50 ; 4.47480410023777E7 ; 1.2071858148679829E9 ; 2.1446555822661126E9 ; 5.0584782857208084E10 ; 0.0
51 ; 4.476238297774202E7 ; 1.2072360618648376E9 ; 2.1894036232684903E9 ; 5.1791968672076065E10 ; 0.0
52 ; 4.478183581327628E7 ; 1.2072870189655097E9 ; 2.2341660062462325E9 ; 5.29992047339409E10 ; 0.0
53 ; 4.4794030117598526E7 ; 1.2073386627440977E9 ; 2.278947842059509E9 ; 5.420649175290641E10 ; 0.0
54 ; 4.481280050823111E7 ; 1.2073909702942066E9 ; 2.3237418721771073E9 ; 5.5413830415650505E10 ; 0.0
55 ; 4.48229081738035E7 ; 1.2074439192328892E9 ; 2.3685546726853385E9 ; 5.662122138594471E10 ; 0.0
56 ; 4.4839205896754E7 ; 1.2074974877025583E9 ; 2.413377580859142E9 ; 5.78286653051776E10 ; 0.0
57 ; 4.485563063123092E7 ; 1.2075516543710766E9 ; 2.4582167867558956E9 ; 5.903616279288016E10 ; 0.0
58 ; 4.486781355186195E7 ; 1.2076063984301987E9 ; 2.5030724173871264E9 ; 6.0243714447251236E10 ; 0.0
59 ; 4.4881095259282574E7 ; 1.207661699592547E9 ; 2.547940230938988E9 ; 6.1451320845681435E10 ; 0.0
60 ; 4.489767581472571E7 ; 1.2077175380872865E9 ; 2.592821326198271E9 ; 6.265898254527398E10 ; 0.0
61 ; 4.490534281548533E7 ; 1.2077738946546464E9 ; 2.6377190020129967E9 ; 6.386670008336127E10 ; 0.0
62 ; 4.492379516104374E7 ; 1.2078307505394387E9 ; 2.682624344828482E9 ; 6.5074473978015915E10 ; 0.0
63 ; 4.4935581206347525E7 ; 1.2078880874837022E9 ; 2.727548139989526E9 ; 6.628230472855535E10 ; 0.0
64 ; 4.495077042531409E7 ; 1.2079458877185938E9 ; 2.7724837211958733E9 ; 6.7490192816039055E10 ; 0.0
65 ; 4.4960801998411275E7 ; 1.2080041339556432E9 ; 2.817434491621187E9 ; 6.869813870375765E10 ; 0.0
66 ; 4.496508881577432E7 ; 1.2080628093774686E9 ; 2.8623952936195984E9 ; 6.99061428377133E10 ; 0.0
67 ; 4.4977464097004786E7 ; 1.208121897628055E9 ; 2.907360382435373E9 ; 7.111420564709077E10 ; 0.0
68 ; 4.4988695474896684E7 ; 1.208181382802669E9 ; 2.9523378465323777E9 ; 7.232232754471883E10 ; 0.0
69 ; 4.499942610455057E7 ; 1.2082412494375005E9 ; 2.9973265420072746E9 ; 7.35305089275215E10 ; 0.0
70 ; 4.501147768799837E7 ; 1.2083014824990878E9 ; 3.042325968111825E9 ; 7.4738750176959E10 ; 0.0
71 ; 4.50142570088994E7 ; 1.2083620673736002E9 ; 3.0873374457998233E9 ; 7.594705165945808E10 ; 0.0
72 ; 4.502462108343925E7 ; 1.208422989856027E9 ; 3.1323517028087225E9 ; 7.715541372683168E10 ; 0.0
73 ; 4.502907867571673E7 ; 1.2084842361393192E9 ; 3.177376323892162E9 ; 7.836383671668771E10 ; 0.0
74 ; 4.503905348752987E7 ; 1.2085457928035426E9 ; 3.2224054025678787E9 ; 7.957232095282703E10 ; 0.0
75 ; 4.504617135807028E7 ; 1.2086076468050623E9 ; 3.2674444560554085E9 ; 8.078086674563057E10 ; 0.0
76 ; 4.505169795604865E7 ; 1.2086697854658067E9 ; 3.312490627413479E9 ; 8.198947439243564E10 ; 0.0
77 ; 4.5065123890861504E7 ; 1.2087321964626338E9 ; 3.3575423253695273E9 ; 8.319814417790144E10 ; 0.0
78 ; 4.505800269595555E7 ; 1.2087948678168292E9 ; 3.402607449260389E9 ; 8.440687637436407E10 ; 0.0
79 ; 4.504240035817347E7 ; 1.2088577878837538E9 ; 3.4476654519563446E9 ; 8.561567124218091E10 ; 0.0
80 ; 4.503975763712591E7 ; 1.2089209453426628E9 ; 3.492707852314518E9 ; 8.682452903006467E10 ; 0.0
81 ; 4.502965900689481E7 ; 1.2089843291867137E9 ; 3.537747609951644E9 ; 8.803344997540733E10 ; 0.0
82 ; 4.5025379062369846E7 ; 1.2090479287131703E9 ; 3.5827772689585385E9 ; 8.924243430459404E10 ; 0.0
83 ; 4.501612541844551E7 ; 1.2091117335138192E9 ; 3.6278026480209084E9 ; 9.04514822333072E10 ; 0.0
84 ; 4.500472249371851E7 ; 1.209175733465605E9 ; 3.672818773439354E9 ; 9.166059396682103E10 ; 0.0
85 ; 4.499738833446758E7 ; 1.2092399187214913E9 ; 3.7178234959330726E9 ; 9.286976970028664E10 ; 0.0
86 ; 4.498428537026838E7 ; 1.20930427970155E9 ; 3.76282088426754E9 ; 9.407900961900813E10 ; 0.0
87 ; 4.4975041024406455E7 ; 1.2093688070842896E9 ; 3.8078051696378083E9 ; 9.528831389870969E10 ; 0.0
88 ; 4.4962461542524695E7 ; 1.2094334917982123E9 ; 3.8527802106622148E9 ; 9.649768270579398E10 ; 0.0
89 ; 4.495582611631158E7 ; 1.2094983250136154E9 ; 3.8977426722047396E9 ; 9.77071161975922E10 ; 0.0
90 ; 4.49484407078359E7 ; 1.2095632981346235E9 ; 3.942698498321051E9 ; 9.89166145226058E10 ; 0.0
91 ; 4.493055994139465E7 ; 1.20962840279146E9 ; 3.987646939028887E9 ; 1.0012617782074043E11 ; 0.0
92 ; 4.492659271883891E7 ; 1.2096936308329515E9 ; 4.0325774989702816E9 ; 1.0133580622353189E11 ; 0.0
93 ; 4.490963650252089E7 ; 1.209758974319262E9 ; 4.0775040916891203E9 ; 1.0254549985436484E11 ; 0.0
94 ; 4.4898950733296104E7 ; 1.2098244255148573E9 ; 4.1224137281916413E9 ; 1.037552588286841E11 ; 0.0
95 ; 4.488478141872509E7 ; 1.2098899768816936E9 ; 4.1673126789249372E9 ; 1.0496508325419896E11 ; 0.0
96 ; 4.486879575141761E7 ; 1.2099556210726256E9 ; 4.2121974603436623E9 ; 1.0617497323108066E11 ; 0.0
97 ; 4.485926418793326E7 ; 1.210021350925034E9 ; 4.25706625609508E9 ; 1.0738492885215329E11 ; 0.0
98 ; 4.484299777209494E7 ; 1.210087159454659E9 ; 4.301925520283013E9 ; 1.0859495020307832E11 ; 0.0
99 ; 4.482623349743699E7 ; 1.2101530398496466E9 ; 4.346768518055108E9 ; 1.0980503736253299E11 ; 0.0
100 ; 4.481109741010866E7 ; 1.2102189854647946E9 ; 4.391594751552545E9 ; 1.1101519040238263E11 ; 0.0
101 ; 4.4799667231122784E7 ; 1.210284989815993E9 ; 4.436405848962653E9 ; 1.1222540938784743E11 ; 0.0
102 ; 4.478507697211073E7 ; 1.2103510465748606E9 ; 4.481205516193776E9 ; 1.1343569437766342E11 ; 0.0
103 ; 4.477473049234229E7 ; 1.210417149563562E9 ; 4.525990593165887E9 ; 1.1464604542423828E11 ; 0.0
104 ; 4.4751514581149645E7 ; 1.210483292749811E9 ; 4.570765323658229E9 ; 1.1585646257380185E11 ; 0.0
105 ; 4.473511707122345E7 ; 1.2105494702420454E9 ; 4.615516838239379E9 ; 1.1706694586655167E11 ; 0.0
106 ; 4.4716058634792455E7 ; 1.2106156762847753E9 ; 4.660251955310602E9 ; 1.1827749533679372E11 ; 0.0
107 ; 4.47012621134264E7 ; 1.2106819052540922E9 ; 4.7049680139453945E9 ; 1.1948811101307849E11 ; 0.0
108 ; 4.467969664625728E7 ; 1.210748151653343E9 ; 4.749669276058821E9 ; 1.2069879291833258E11 ; 0.0
109 ; 4.466575555368055E7 ; 1.2108144101089532E9 ; 4.794348972705078E9 ; 1.2190954106998592E11 ; 0.0
110 ; 4.464391207772859E7 ; 1.210880675366404E9 ; 4.839014728258759E9 ; 1.2312035548009486E11 ; 0.0
111 ; 4.462959151276864E7 ; 1.210946942286351E9 ; 4.883658640336487E9 ; 1.2433123615546127E11 ; 0.0
112 ; 4.461107615968914E7 ; 1.2110132058408847E9 ; 4.928288231849256E9 ; 1.2554218309774762E11 ; 0.0
113 ; 4.458065710426179E7 ; 1.2110794611099226E9 ; 4.9728993080089445E9 ; 1.267531963035885E11 ; 0.0
114 ; 4.4558756676699474E7 ; 1.211145703277737E9 ; 5.017479965113206E9 ; 1.2796427576469843E11 ; 0.0
115 ; 4.455146291233952E7 ; 1.2112119276296015E9 ; 5.062038721789906E9 ; 1.2917542146797617E11 ; 0.0
116 ; 4.452508340205279E7 ; 1.211278129548565E9 ; 5.106590184702245E9 ; 1.3038663339560577E11 ; 0.0
117 ; 4.450071612345965E7 ; 1.2113443045123377E9 ; 5.151115268104298E9 ; 1.3159791152515434E11 ; 0.0
118 ; 4.4485455106713854E7 ; 1.2114104480902944E9 ; 5.195615984227757E9 ; 1.3280925582966669E11 ; 0.0
119 ; 4.446315341114509E7 ; 1.2114765559405823E9 ; 5.240101439334472E9 ; 1.3402066627775699E11 ; 0.0
120 ; 4.443794502311114E7 ; 1.2115426238073354E9 ; 5.284564592745617E9 ; 1.3523214283369757E11 ; 0.0
121 ; 4.4408808115862675E7 ; 1.2116086475179906E9 ; 5.329002537768728E9 ; 1.3644368545750491E11 ; 0.0
122 ; 4.4393339213976175E7 ; 1.2116746229806995E9 ; 5.373411345884591E9 ; 1.3765529410502292E11 ; 0.0
123 ; 4.436742707428885E7 ; 1.2117405461818347E9 ; 5.417804685098567E9 ; 1.3886696872800363E11 ; 0.0
124 ; 4.434808570316871E7 ; 1.2118064131835856E9 ; 5.462172112172856E9 ; 1.4007870927418546E11 ; 0.0
125 ; 4.432114212736521E7 ; 1.2118722201216426E9 ; 5.506520197876025E9 ; 1.4129051568736905E11 ; 0.0
126 ; 4.429940744692637E7 ; 1.2119379632029614E9 ; 5.55084134000339E9 ; 1.425023879074907E11 ; 0.0
127 ; 4.4270533466010034E7 ; 1.2120036387036138E9 ; 5.595140747450316E9 ; 1.4371432587069366E11 ; 0.0
128 ; 4.424442751731463E7 ; 1.212069242966708E9 ; 5.6394112809163265E9 ; 1.4492632950939728E11 ; 0.0
129 ; 4.422193264344522E7 ; 1.2121347724003916E9 ; 5.683655708433641E9 ; 1.4613839875236398E11 ; 0.0
130 ; 4.4189557888329685E7 ; 1.2122002234759216E9 ; 5.727877641077086E9 ; 1.4735053352476437E11 ; 0.0
131 ; 4.41503051334931E7 ; 1.2122655927258024E9 ; 5.772067198965416E9 ; 1.485627337482403E11 ; 0.0
132 ; 4.4111138384139985E7 ; 1.2123308767419965E9 ; 5.816217504098909E9 ; 1.497749993409661E11 ; 0.0
133 ; 4.406961726269208E7 ; 1.2123960721741915E9 ; 5.860328642483049E9 ; 1.509873302177081E11 ; 0.0
134 ; 4.402772711490448E7 ; 1.2124611757281342E9 ; 5.904398259745742E9 ; 1.521997262898823E11 ; 0.0
135 ; 4.398168630834939E7 ; 1.2125261841640224E9 ; 5.948425986860646E9 ; 1.534121874656104E11 ; 0.0
136 ; 4.394679443971266E7 ; 1.2125910942949536E9 ; 5.992407673168996E9 ; 1.5462471364977444E11 ; 0.0
137 ; 4.389906175869276E7 ; 1.2126559029854271E9 ; 6.036354467608708E9 ; 1.558373047440694E11 ; 0.0
138 ; 4.386118535963357E7 ; 1.2127206071499033E9 ; 6.080253529367401E9 ; 1.570499606470548E11 ; 0.0
139 ; 4.3815203416207284E7 ; 1.212785203751408E9 ; 6.124114714727035E9 ; 1.582626812542047E11 ; 0.0
140 ; 4.377160170439716E7 ; 1.2128496898001914E9 ; 6.167929918143242E9 ; 1.5947546645795612E11 ; 0.0
141 ; 4.373014898928857E7 ; 1.2129140623524306E9 ; 6.211701519847639E9 ; 1.6068831614775632E11 ; 0.0
142 ; 4.368784075207717E7 ; 1.2129783185089774E9 ; 6.255431668836927E9 ; 1.6190123021010873E11 ; 0.0
143 ; 4.363799886815453E7 ; 1.2130424554141533E9 ; 6.2991195095890045E9 ; 1.631142085286177E11 ; 0.0
144 ; 4.3595849000223674E7 ; 1.2131064702545824E9 ; 6.342757508457159E9 ; 1.6432725098403186E11 ; 0.0
145 ; 4.357089080784964E7 ; 1.2131703602580667E9 ; 6.386353357457383E9 ; 1.6554035745428644E11 ; 0.0
146 ; 4.354646977874814E7 ; 1.2132341226925E9 ; 6.429924248265233E9 ; 1.667535278145445E11 ; 0.0
147 ; 4.351239220206594E7 ; 1.2132977548648221E9 ; 6.473470718043982E9 ; 1.67966761937237E11 ; 0.0
148 ; 4.348861045643813E7 ; 1.2133612541200023E9 ; 6.516983110246047E9 ; 1.691800596921018E11 ; 0.0
149 ; 4.34590486716037E7 ; 1.2134246178400645E9 ; 6.560471720702485E9 ; 1.703934209462218E11 ; 0.0
150 ; 4.343147885314493E7 ; 1.2134878434431448E9 ; 6.603930769374089E9 ; 1.7160684556406186E11 ; 0.0
151 ; 4.340376865724703E7 ; 1.2135509283825755E9 ; 6.647362248227234E9 ; 1.72820333407505E11 ; 0.0
152 ; 4.337684629419866E7 ; 1.213613870146009E9 ; 6.69076601688448E9 ; 1.7403388433588757E11 ; 0.0
153 ; 4.334655307200596E7 ; 1.213676666254564E9 ; 6.734142863178679E9 ; 1.7524749820603357E11 ; 0.0
154 ; 4.3314935727600075E7 ; 1.2137393142620065E9 ; 6.777489416250686E9 ; 1.7646117487228815E11 ; 0.0
155 ; 4.3288765853607796E7 ; 1.213801811753953E9 ; 6.820804351978286E9 ; 1.7767491418655014E11 ; 0.0
156 ; 4.325657522843681E7 ; 1.213864156347105E9 ; 6.864093117831894E9 ; 1.788887159983041E11 ; 0.0
157 ; 4.323002156674904E7 ; 1.2139263456885083E9 ; 6.90734969306033E9 ; 1.801025801546512E11 ; 0.0
158 ; 4.31996393558499E7 ; 1.2139883774548342E9 ; 6.950579714627079E9 ; 1.8131650650033972E11 ; 0.0
159 ; 4.3169530551851444E7 ; 1.214050249351689E9 ; 6.993779353982929E9 ; 1.8253049487779456E11 ; 0.0
160 ; 4.31412043526614E7 ; 1.2141119591129444E9 ; 7.0369488845347805E9 ; 1.8374454512714624E11 ; 0.0
161 ; 4.3107328963535175E7 ; 1.2141735045000885E9 ; 7.080090088887442E9 ; 1.849586570862592E11 ; 0.0
162 ; 4.308078386187094E7 ; 1.2142348833016021E9 ; 7.123197417850977E9 ; 1.8617283059075928E11 ; 0.0
163 ; 4.304857383509813E7 ; 1.2142960933323536E9 ; 7.166278201712848E9 ; 1.8738706547406088E11 ; 0.0
164 ; 4.3019228515734844E7 ; 1.2143571324330122E9 ; 7.209326775547946E9 ; 1.8860136156739325E11 ; 0.0
165 ; 4.2985812201066E7 ; 1.214417998469484E9 ; 7.252346004063681E9 ; 1.8981571869982626E11 ; 0.0
166 ; 4.2957059037879646E7 ; 1.2144786893323643E9 ; 7.295331816264747E9 ; 1.9103013669829575E11 ; 0.0
167 ; 4.2933487511368625E7 ; 1.2145392029364078E9 ; 7.338288875302627E9 ; 1.922446153876281E11 ; 0.0
168 ; 4.289390427483763E7 ; 1.2145995372200165E9 ; 7.381222362813995E9 ; 1.934591545905645E11 ; 0.0
169 ; 4.286299178069192E7 ; 1.214659690144745E9 ; 7.424116267088833E9 ; 1.9467375412778455E11 ; 0.0
170 ; 4.28317495355198E7 ; 1.2147196596948216E9 ; 7.466979258869525E9 ; 1.958884138179293E11 ; 0.0
171 ; 4.280681790170368E7 ; 1.2147794438766823E9 ; 7.509811008405045E9 ; 1.971031334776241E11 ; 0.0
172 ; 4.276765768421562E7 ; 1.214839040718525E9 ; 7.552617826306748E9 ; 1.983179129215008E11 ; 0.0
173 ; 4.274637220295797E7 ; 1.2148984482698722E9 ; 7.595385483990964E9 ; 1.9953275196221933E11 ; 0.0
174 ; 4.2675911560467854E7 ; 1.2149576646011539E9 ; 7.638131856193922E9 ; 2.007476504104892E11 ; 0.0
175 ; 4.259296596915331E7 ; 1.2150166878032975E9 ; 7.68080776775439E9 ; 2.0196260807509036E11 ; 0.0
176 ; 4.251051085011844E7 ; 1.215075515987336E9 ; 7.723400733723543E9 ; 2.0317762476289365E11 ; 0.0
177 ; 4.243785049154045E7 ; 1.2151341472840252E9 ; 7.765911244573662E9 ; 2.0439270027888098E11 ; 0.0
178 ; 4.235530006165153E7 ; 1.2151925798434756E9 ; 7.808349095065203E9 ; 2.05607834426165E11 ; 0.0
179 ; 4.2276302398079045E7 ; 1.2152508118347948E9 ; 7.850704395126854E9 ; 2.0682302700600848E11 ; 0.0
180 ; 4.21998231379661E7 ; 1.2153088414457402E9 ; 7.892980697524933E9 ; 2.080382778178433E11 ; 0.0
181 ; 4.211064018366081E7 ; 1.2153666668823853E9 ; 7.935180520662899E9 ; 2.0925358665928903E11 ; 0.0
182 ; 4.203300643919517E7 ; 1.2154242863687932E9 ; 7.97729116084656E9 ; 2.1046895332617142E11 ; 0.0
183 ; 4.19578081628286E7 ; 1.2154816981467037E9 ; 8.019324167285755E9 ; 2.1168437761254022E11 ; 0.0
184 ; 4.188170174737744E7 ; 1.2155389004752276E9 ; 8.061281975448584E9 ; 2.1289985931068692E11 ; 0.0
185 ; 4.180638250113727E7 ; 1.2155958916305525E9 ; 8.103163677195961E9 ; 2.1411539821116214E11 ; 0.0
186 ; 4.171505347691865E7 ; 1.2156526699056551E9 ; 8.144970059697099E9 ; 2.153309941027927E11 ; 0.0
187 ; 4.16377775155003E7 ; 1.2157092336100261E9 ; 8.186685113174017E9 ; 2.1654664677269836E11 ; 0.0
188 ; 4.155980313289101E7 ; 1.2157655810694017E9 ; 8.228322890689517E9 ; 2.1776235600630838E11 ; 0.0
189 ; 4.1480760206616536E7 ; 1.215821710625501E9 ; 8.269882693822408E9 ; 2.1897812158737778E11 ; 0.0
190 ; 4.139849815457788E7 ; 1.215877620635777E9 ; 8.311363454029024E9 ; 2.2019394329800327E11 ; 0.0
191 ; 4.132903339052576E7 ; 1.2159333094731712E9 ; 8.352761952183602E9 ; 2.2140982091863904E11 ; 0.0
192 ; 4.124311752565886E7 ; 1.2159887755258756E9 ; 8.394090985574128E9 ; 2.226257542281122E11 ; 0.0
193 ; 4.116753132411764E7 ; 1.2160440171971054E9 ; 8.435334103099787E9 ; 2.238417430036381E11 ; 0.0
194 ; 4.108399497312806E7 ; 1.2160990329048743E9 ; 8.476501634423904E9 ; 2.250577870208352E11 ; 0.0
195 ; 4.100280045509368E7 ; 1.2161538210817807E9 ; 8.517585629397033E9 ; 2.2627388605374008E11 ; 0.0
196 ; 4.092595553479545E7 ; 1.2162083801747975E9 ; 8.558588429852126E9 ; 2.2749003987482187E11 ; 0.0
