CSV File for the Network on Day 355
1 - Minute m 
2 - Power Consumed at minute m 
3 - Power Produced at minute m 
4 - Energy Consumed since the beginning of the day 
5 - Energy Produced since the beginning of the day 
6 - Energy Lost since the beginning of the day 
 
0 ; 3.854748952661129E7 ; 6.347303204092157E8 ; 0.0 ; 0.0 ; 0.0
1 ; 3.858708592734213E7 ; 6.356409141798725E8 ; 3.854748952661129E7 ; 6.347303204092157E8 ; 0.0
2 ; 3.863042083001345E7 ; 6.384049171843971E8 ; 7.713457545395342E7 ; 1.2703712345890882E9 ; 0.0
3 ; 3.867232532016516E7 ; 6.430223477732093E8 ; 1.1576499628396687E8 ; 1.9087761517734852E9 ; 0.0
4 ; 3.8738063579602405E7 ; 6.494932224217776E8 ; 1.5443732160413203E8 ; 2.5517984995466948E9 ; 0.0
5 ; 3.880582992079761E7 ; 6.578175556291873E8 ; 1.9317538518373442E8 ; 3.2012917219684725E9 ; 0.0
6 ; 3.889664398958721E7 ; 6.679953598269624E8 ; 2.3198121510453203E8 ; 3.85910927759766E9 ; 0.0
7 ; 3.9028124688182496E7 ; 6.800266452994565E8 ; 2.7087785909411925E8 ; 4.527104637424623E9 ; 0.0
8 ; 3.9206597849409014E7 ; 6.939114201169882E8 ; 3.099059837823017E8 ; 5.207131282724079E9 ; 0.0
9 ; 3.949134940159115E7 ; 7.09649690082732E8 ; 3.4911258163171077E8 ; 5.901042702841067E9 ; 0.0
10 ; 3.992282665552018E7 ; 7.272414586941788E8 ; 3.8860393103330195E8 ; 6.6106923929237995E9 ; 0.0
11 ; 4.061249884279844E7 ; 7.466867271197692E8 ; 4.2852675768882215E8 ; 7.337933851617978E9 ; 0.0
12 ; 4.171810428355053E7 ; 7.679854941910625E8 ; 4.691392565316206E8 ; 8.084620578737747E9 ; 0.0
13 ; 4.278365998902234E7 ; 7.911377564105675E8 ; 5.108573608151711E8 ; 8.85260607292881E9 ; 0.0
14 ; 4.291587806111595E7 ; 8.161435079751108E8 ; 5.536410208041935E8 ; 9.643743829339378E9 ; 0.0
15 ; 4.296306046853316E7 ; 8.430027408143723E8 ; 5.965568988653095E8 ; 1.045988733731449E10 ; 0.0
16 ; 4.300744361742172E7 ; 8.717154446439998E8 ; 6.395199593338426E8 ; 1.1302890078128862E10 ; 0.0
17 ; 4.3061741677487046E7 ; 9.022816070324687E8 ; 6.825274029512644E8 ; 1.2174605522772861E10 ; 0.0
18 ; 4.311122283781099E7 ; 9.347012134806933E8 ; 7.255891446287514E8 ; 1.307688712980533E10 ; 0.0
19 ; 4.315431586436273E7 ; 9.689742475132058E8 ; 7.687003674665624E8 ; 1.4011588343286024E10 ; 0.0
20 ; 4.3211500754928105E7 ; 1.0051006907795858E9 ; 8.118546833309251E8 ; 1.498056259079923E10 ; 0.0
21 ; 4.326749254135612E7 ; 1.0430805231647354E9 ; 8.550661840858532E8 ; 1.5985663281578815E10 ; 0.0
22 ; 4.33129187809231E7 ; 1.0829137229065013E9 ; 8.983336766272093E8 ; 1.7028743804743551E10 ; 0.0
23 ; 4.3368002125428274E7 ; 1.1246002667191343E9 ; 9.416465954081324E8 ; 1.811165752765005E10 ; 0.0
24 ; 4.341646030752407E7 ; 1.1681401299210572E9 ; 9.850145975335608E8 ; 1.9236257794369186E10 ; 0.0
25 ; 4.346895719759831E7 ; 1.205661531954547E9 ; 1.0284310578410848E9 ; 2.0404397924290245E10 ; 0.0
26 ; 4.351914091833764E7 ; 1.2056857327390697E9 ; 1.0719000150386832E9 ; 2.1610059456244793E10 ; 0.0
27 ; 4.3561400196808144E7 ; 1.205711319952671E9 ; 1.1154191559570208E9 ; 2.2815745188983864E10 ; 0.0
28 ; 4.361644967856066E7 ; 1.2057382646433396E9 ; 1.1589805561538289E9 ; 2.4021456508936535E10 ; 0.0
29 ; 4.366367160444586E7 ; 1.2057665371168091E9 ; 1.2025970058323896E9 ; 2.5227194773579876E10 ; 0.0
30 ; 4.370209951141551E7 ; 1.2057961070614796E9 ; 1.2462606774368355E9 ; 2.6432961310696686E10 ; 0.0
31 ; 4.375561848886971E7 ; 1.2058269436690266E9 ; 1.289962776948251E9 ; 2.7638757417758163E10 ; 0.0
32 ; 4.379268075293831E7 ; 1.2058590157499573E9 ; 1.3337183954371207E9 ; 2.884458436142719E10 ; 0.0
33 ; 4.3837150567477055E7 ; 1.2058922918434806E9 ; 1.377511076190059E9 ; 3.0050443377177147E10 ; 0.0
34 ; 4.388329563002187E7 ; 1.2059267403212104E9 ; 1.421348226757536E9 ; 3.1256335669020626E10 ; 0.0
35 ; 4.3926257840389386E7 ; 1.2059623294843364E9 ; 1.4652315223875577E9 ; 3.2462262409341835E10 ; 0.0
36 ; 4.3966085954078116E7 ; 1.2059990276540122E9 ; 1.5091577802279472E9 ; 3.366822473882617E10 ; 0.0
37 ; 4.4008496019065574E7 ; 1.2060368032548265E9 ; 1.5531238661820254E9 ; 3.487422376648019E10 ; 0.0
38 ; 4.404557589352195E7 ; 1.2060756248913083E9 ; 1.597132362201091E9 ; 3.6080260569735016E10 ; 0.0
39 ; 4.40797620940416E7 ; 1.2061154614175153E9 ; 1.641177938094613E9 ; 3.728633619462633E10 ; 0.0
40 ; 4.411517666585237E7 ; 1.206156281999819E9 ; 1.6852577001886547E9 ; 3.8492451656043846E10 ; 0.0
41 ; 4.4148381680279434E7 ; 1.2061980561730666E9 ; 1.729372876854507E9 ; 3.969860793804366E10 ; 0.0
42 ; 4.4176633532367826E7 ; 1.206240753890355E9 ; 1.7735212585347865E9 ; 4.090480599421673E10 ; 0.0
43 ; 4.4206991514950275E7 ; 1.2062843455666866E9 ; 1.8176978920671544E9 ; 4.2111046748107086E10 ; 0.0
44 ; 4.4235036082188495E7 ; 1.2063288021168184E9 ; 1.8619048835821047E9 ; 4.3317331093673775E10 ; 0.0
45 ; 4.4254191412524864E7 ; 1.2063740949876292E9 ; 1.9061399196642933E9 ; 4.4523659895790596E10 ; 0.0
46 ; 4.4280162640306994E7 ; 1.2064201961853547E9 ; 1.9503941110768182E9 ; 4.573003399077823E10 ; 0.0
47 ; 4.430635795109593E7 ; 1.2064670782980425E9 ; 1.9946742737171252E9 ; 4.6936454186963585E10 ; 0.0
48 ; 4.432427328743564E7 ; 1.2065147145135841E9 ; 2.038980631668221E9 ; 4.814292126526163E10 ; 0.0
49 ; 4.433651149932174E7 ; 1.2065630786336808E9 ; 2.0833049049556565E9 ; 4.934943597977521E10 ; 0.0
50 ; 4.4349262714884594E7 ; 1.20661214508409E9 ; 2.1276414164549782E9 ; 5.055599905840889E10 ; 0.0
51 ; 4.435812818584196E7 ; 1.2066618889214933E9 ; 2.1719906791698627E9 ; 5.176261120349298E10 ; 0.0
52 ; 4.43806409777251E7 ; 1.206712285837307E9 ; 2.216348807355705E9 ; 5.2969273092414474E10 ; 0.0
53 ; 4.43906868966911E7 ; 1.2067633121587539E9 ; 2.26072944833343E9 ; 5.4175985378251785E10 ; 0.0
54 ; 4.440632583377719E7 ; 1.206814944847484E9 ; 2.305120135230121E9 ; 5.538274869041054E10 ; 0.0
55 ; 4.441494738391934E7 ; 1.206867161496028E9 ; 2.349526461063898E9 ; 5.658956363525802E10 ; 0.0
56 ; 4.442790154615918E7 ; 1.206919940322338E9 ; 2.3939414084478173E9 ; 5.779643079675404E10 ; 0.0
57 ; 4.4438168493098184E7 ; 1.2069732601626627E9 ; 2.4383693099939766E9 ; 5.9003350737076385E10 ; 0.0
58 ; 4.4447897212530196E7 ; 1.2070271004629745E9 ; 2.482807478487075E9 ; 6.021032399723905E10 ; 0.0
59 ; 4.445867293207007E7 ; 1.2070814412691612E9 ; 2.527255375699605E9 ; 6.141735109770203E10 ; 0.0
60 ; 4.447135454112121E7 ; 1.2071362632161655E9 ; 2.5717140486316752E9 ; 6.262443253897119E10 ; 0.0
61 ; 4.447811087843033E7 ; 1.2071915475162458E9 ; 2.6161854031727962E9 ; 6.3831568802187355E10 ; 0.0
62 ; 4.44974020669363E7 ; 1.207247275946518E9 ; 2.6606635140512266E9 ; 6.50387603497036E10 ; 0.0
63 ; 4.450008718199709E7 ; 1.2073034308359106E9 ; 2.705160916118163E9 ; 6.6246007625650116E10 ; 0.0
64 ; 4.451188064202803E7 ; 1.2073599950516722E9 ; 2.7496610033001604E9 ; 6.745331105648602E10 ; 0.0
65 ; 4.45159074761155E7 ; 1.2074169519855328E9 ; 2.7941728839421883E9 ; 6.86606710515377E10 ; 0.0
66 ; 4.4519894948627315E7 ; 1.2074742855396276E9 ; 2.838688791418304E9 ; 6.986808800352322E10 ; 0.0
67 ; 4.4528420856674716E7 ; 1.2075319801122713E9 ; 2.8832086863669314E9 ; 7.107556228906285E10 ; 0.0
68 ; 4.453655610887742E7 ; 1.2075900205836601E9 ; 2.927737107223606E9 ; 7.228309426917513E10 ; 0.0
69 ; 4.4541567189575225E7 ; 1.207648392301574E9 ; 2.9722736633324833E9 ; 7.349068428975879E10 ; 0.0
70 ; 4.4549328840708114E7 ; 1.2077070810671372E9 ; 3.0168152305220585E9 ; 7.469833268206036E10 ; 0.0
71 ; 4.4555007730522156E7 ; 1.2077660731206913E9 ; 3.0613645593627667E9 ; 7.59060397631275E10 ; 0.0
72 ; 4.4556076918381825E7 ; 1.2078253551278234E9 ; 3.105919567093289E9 ; 7.71138058362482E10 ; 0.0
73 ; 4.456054633380761E7 ; 1.2078849141655936E9 ; 3.1504756440116706E9 ; 7.832163119137602E10 ; 0.0
74 ; 4.457273761132175E7 ; 1.2079447377089858E9 ; 3.195036190345478E9 ; 7.952951610554161E10 ; 0.0
75 ; 4.456914681461376E7 ; 1.2080048136176183E9 ; 3.2396089279568E9 ; 8.07374608432506E10 ; 0.0
76 ; 4.4577874260315955E7 ; 1.2080651301227298E9 ; 3.284178074771414E9 ; 8.194546565686821E10 ; 0.0
77 ; 4.458486831084058E7 ; 1.2081256758144608E9 ; 3.3287559490317297E9 ; 8.315353078699094E10 ; 0.0
78 ; 4.456989449612815E7 ; 1.2081864396294484E9 ; 3.3733408173425703E9 ; 8.436165646280539E10 ; 0.0
79 ; 4.4559568227817625E7 ; 1.2082474108387403E9 ; 3.4179107118386984E9 ; 8.556984290243484E10 ; 0.0
80 ; 4.454489585139664E7 ; 1.2083085790360377E9 ; 3.462470280066516E9 ; 8.677809031327359E10 ; 0.0
81 ; 4.453543522064887E7 ; 1.2083699341262748E9 ; 3.5070151759179125E9 ; 8.798639889230963E10 ; 0.0
82 ; 4.4524692872703284E7 ; 1.2084314663145356E9 ; 3.5515506111385612E9 ; 8.919476882643591E10 ; 0.0
83 ; 4.451425958753735E7 ; 1.2084931660953104E9 ; 3.5960753040112643E9 ; 9.040320029275044E10 ; 0.0
84 ; 4.450020639215341E7 ; 1.2085550242420897E9 ; 3.6405895635988016E9 ; 9.161169345884575E10 ; 0.0
85 ; 4.448799578254974E7 ; 1.208617031797296E9 ; 3.685089769990955E9 ; 9.282024848308784E10 ; 0.0
86 ; 4.4474037231110245E7 ; 1.2086791800625494E9 ; 3.7295777657735047E9 ; 9.402886551488515E10 ; 0.0
87 ; 4.446939698286984E7 ; 1.2087414605892606E9 ; 3.774051803004615E9 ; 9.52375446949477E10 ; 0.0
88 ; 4.445209842098066E7 ; 1.2088038651695495E9 ; 3.8185211999874845E9 ; 9.644628615553696E10 ; 0.0
89 ; 4.443905770520413E7 ; 1.20886638582748E9 ; 3.862973298408465E9 ; 9.765509002070651E10 ; 0.0
90 ; 4.442122795831981E7 ; 1.2089290148106081E9 ; 3.907412356113669E9 ; 9.8863956406534E10 ; 0.0
91 ; 4.44047723820619E7 ; 1.208991744581831E9 ; 3.9518335840719886E9 ; 1.000728854213446E11 ; 0.0
92 ; 4.43890218104877E7 ; 1.2090545678115358E9 ; 3.9962383564540505E9 ; 1.0128187716592644E11 ; 0.0
93 ; 4.437343695975508E7 ; 1.2091174773700361E9 ; 4.0406273782645383E9 ; 1.0249093173373798E11 ; 0.0
94 ; 4.436061732326479E7 ; 1.2091804663202877E9 ; 4.085000815224293E9 ; 1.0370004921110802E11 ; 0.0
95 ; 4.434148567269395E7 ; 1.2092435279108799E9 ; 4.129361432547558E9 ; 1.049092296774283E11 ; 0.0
96 ; 4.43250892006913E7 ; 1.209306655569286E9 ; 4.1737029182202516E9 ; 1.0611847320533917E11 ; 0.0
97 ; 4.429931929248113E7 ; 1.2093698428953786E9 ; 4.218028007420943E9 ; 1.0732777986090846E11 ; 0.0
98 ; 4.428835888665214E7 ; 1.209433083655181E9 ; 4.2623273267134237E9 ; 1.0853714970380385E11 ; 0.0
99 ; 4.426744244877854E7 ; 1.2094963717748692E9 ; 4.306615685600076E9 ; 1.0974658278745903E11 ; 0.0
100 ; 4.4253270785865135E7 ; 1.2095597013349977E9 ; 4.350883128048854E9 ; 1.109560791592339E11 ; 0.0
101 ; 4.423472875728195E7 ; 1.2096230665649517E9 ; 4.395136398834719E9 ; 1.121656388605689E11 ; 0.0
102 ; 4.4204123454554036E7 ; 1.2096864618376133E9 ; 4.439371127592001E9 ; 1.1337526192713385E11 ; 0.0
103 ; 4.418872313298095E7 ; 1.2097498816642375E9 ; 4.483575251046555E9 ; 1.1458494838897147E11 ; 0.0
104 ; 4.4170968045450345E7 ; 1.209813320689525E9 ; 4.527763974179536E9 ; 1.157946982706357E11 ; 0.0
105 ; 4.414760705407857E7 ; 1.2098767736868896E9 ; 4.571934942224986E9 ; 1.1700451159132523E11 ; 0.0
106 ; 4.412745908281368E7 ; 1.2099402355539112E9 ; 4.616082549279064E9 ; 1.1821438836501212E11 ; 0.0
107 ; 4.410056991471093E7 ; 1.2100037013079648E9 ; 4.660210008361877E9 ; 1.1942432860056602E11 ; 0.0
108 ; 4.407781753646639E7 ; 1.2100671660820231E9 ; 4.704310578276588E9 ; 1.20634332301874E11 ; 0.0
109 ; 4.406154374399621E7 ; 1.2101306251206226E9 ; 4.748388395813055E9 ; 1.2184439946795601E11 ; 0.0
110 ; 4.403692237869442E7 ; 1.2101940737759895E9 ; 4.792449939557052E9 ; 1.2305453009307663E11 ; 0.0
111 ; 4.401089430628895E7 ; 1.2102575075043156E9 ; 4.836486861935746E9 ; 1.2426472416685262E11 ; 0.0
112 ; 4.398463188438079E7 ; 1.210320921862182E9 ; 4.880497756242035E9 ; 1.2547498167435693E11 ; 0.0
113 ; 4.396814125562639E7 ; 1.2103843125031219E9 ; 4.924482388126415E9 ; 1.2668530259621912E11 ; 0.0
114 ; 4.393849714050603E7 ; 1.2104476751743207E9 ; 4.968450529382042E9 ; 1.2789568690872224E11 ; 0.0
115 ; 4.391125498535846E7 ; 1.2105110057134402E9 ; 5.012389026522548E9 ; 1.2910613458389656E11 ; 0.0
116 ; 4.388917918831457E7 ; 1.2105743000455737E9 ; 5.056300281507906E9 ; 1.3031664558961E11 ; 0.0
117 ; 4.386072900867842E7 ; 1.210637554180314E9 ; 5.10018946069622E9 ; 1.3152721988965558E11 ; 0.0
118 ; 4.383638624108329E7 ; 1.2107007642089403E9 ; 5.144050189704899E9 ; 1.3273785744383589E11 ; 0.0
119 ; 4.380717104293611E7 ; 1.2107639263017116E9 ; 5.187886575945982E9 ; 1.3394855820804483E11 ; 0.0
120 ; 4.377798619775097E7 ; 1.210827036705267E9 ; 5.231693746988918E9 ; 1.3515932213434654E11 ; 0.0
121 ; 4.37576479456261E7 ; 1.2108900917401266E9 ; 5.275471733186669E9 ; 1.363701491710518E11 ; 0.0
122 ; 4.3728475582131624E7 ; 1.2109530877982893E9 ; 5.319229381132296E9 ; 1.3758103926279193E11 ; 0.0
123 ; 4.369440674943674E7 ; 1.211016021340923E9 ; 5.362957856714427E9 ; 1.387919923505902E11 ; 0.0
124 ; 4.367048482583014E7 ; 1.211078888896144E9 ; 5.406652263463863E9 ; 1.4000300837193112E11 ; 0.0
125 ; 4.364276830324274E7 ; 1.2111416870568826E9 ; 5.450322748289694E9 ; 1.4121408726082727E11 ; 0.0
126 ; 4.361358393564125E7 ; 1.2112044124788294E9 ; 5.4939655165929365E9 ; 1.4242522894788416E11 ; 0.0
127 ; 4.358156952035023E7 ; 1.2112670618784623E9 ; 5.537579100528578E9 ; 1.4363643336036298E11 ; 0.0
128 ; 4.3548821829563305E7 ; 1.211329632031146E9 ; 5.581160670048928E9 ; 1.4484770042224142E11 ; 0.0
129 ; 4.351572754248024E7 ; 1.2113921197693062E9 ; 5.624709491878491E9 ; 1.4605903005427258E11 ; 0.0
130 ; 4.3481775104353234E7 ; 1.2114545219806721E9 ; 5.668225219420972E9 ; 1.472704221740419E11 ; 0.0
131 ; 4.344278260243522E7 ; 1.211516835606587E9 ; 5.711706994525325E9 ; 1.4848187669602258E11 ; 0.0
132 ; 4.3395587674998775E7 ; 1.2115790576403804E9 ; 5.75514977712776E9 ; 1.4969339353162918E11 ; 0.0
133 ; 4.334952902587202E7 ; 1.2116411851258028E9 ; 5.798545364802759E9 ; 1.5090497258926956E11 ; 0.0
134 ; 4.33006525229093E7 ; 1.2117032151555195E9 ; 5.841894893828631E9 ; 1.5211661377439536E11 ; 0.0
135 ; 4.324826926326921E7 ; 1.2117651448696601E9 ; 5.885195546351541E9 ; 1.5332831698955087E11 ; 0.0
136 ; 4.320569557070183E7 ; 1.2118269714544237E9 ; 5.92844381561481E9 ; 1.5454008213442053E11 ; 0.0
137 ; 4.316196880641505E7 ; 1.2118886921407332E9 ; 5.971649511185512E9 ; 1.5575190910587497E11 ; 0.0
138 ; 4.3117978157696076E7 ; 1.2119503042029428E9 ; 6.014811479991926E9 ; 1.5696379779801572E11 ; 0.0
139 ; 4.306232309014402E7 ; 1.2120118049575903E9 ; 6.057929458149622E9 ; 1.5817574810221866E11 ; 0.0
140 ; 4.301477867777261E7 ; 1.2120731917621984E9 ; 6.100991781239766E9 ; 1.5938775990717624E11 ; 0.0
141 ; 4.297177226497729E7 ; 1.2121344620141177E9 ; 6.144006559917539E9 ; 1.6059983309893845E11 ; 0.0
142 ; 4.292293737999858E7 ; 1.2121956131494136E9 ; 6.186978332182516E9 ; 1.6181196756095258E11 ; 0.0
143 ; 4.287480038812865E7 ; 1.2122566426417928E9 ; 6.229901269562514E9 ; 1.63024163174102E11 ; 0.0
144 ; 4.282172459374083E7 ; 1.21231754800157E9 ; 6.272776069950643E9 ; 1.6423641981674377E11 ; 0.0
145 ; 4.279536051132919E7 ; 1.2123783267746701E9 ; 6.315597794544383E9 ; 1.6544873736474533E11 ; 0.0
146 ; 4.275707633813491E7 ; 1.212438976541671E9 ; 6.358393155055713E9 ; 1.6666111569152E11 ; 0.0
147 ; 4.272204475938905E7 ; 1.212499494916874E9 ; 6.401150231393847E9 ; 1.6787355466806165E11 ; 0.0
148 ; 4.2690007088825345E7 ; 1.2125598795474148E9 ; 6.443872276153236E9 ; 1.6908605416297852E11 ; 0.0
149 ; 4.2654329509090245E7 ; 1.2126201281124012E9 ; 6.486562283242062E9 ; 1.7029861404252594E11 ; 0.0
150 ; 4.2623854612845436E7 ; 1.2126802383220844E9 ; 6.529216612751152E9 ; 1.7151123417063834E11 ; 0.0
151 ; 4.258402546501164E7 ; 1.2127402079170587E9 ; 6.571840467363997E9 ; 1.7272391440896042E11 ; 0.0
152 ; 4.255397392905288E7 ; 1.2128000346674888E9 ; 6.614424492829009E9 ; 1.7393665461687747E11 ; 0.0
153 ; 4.251823181707594E7 ; 1.2128597163723679E9 ; 6.656978466758062E9 ; 1.7514945465154495E11 ; 0.0
154 ; 4.248748427714712E7 ; 1.2129192508587966E9 ; 6.699496698575138E9 ; 1.7636231436791733E11 ; 0.0
155 ; 4.244733625495022E7 ; 1.2129786359812925E9 ; 6.741984182852285E9 ; 1.7757523361877612E11 ; 0.0
156 ; 4.241195375797883E7 ; 1.2130378696211202E9 ; 6.784431519107236E9 ; 1.7878821225475742E11 ; 0.0
157 ; 4.238521199023208E7 ; 1.2130969496856468E9 ; 6.826843472865214E9 ; 1.8000125012437854E11 ; 0.0
158 ; 4.2348990860619724E7 ; 1.2131558741077185E9 ; 6.869228684855447E9 ; 1.8121434707406418E11 ; 0.0
159 ; 4.230836215869615E7 ; 1.2132146408450596E9 ; 6.911577675716066E9 ; 1.824275029481719E11 ; 0.0
160 ; 4.2269571052288875E7 ; 1.2132732478796933E9 ; 6.953886037874763E9 ; 1.8364071758901697E11 ; 0.0
161 ; 4.223733395797594E7 ; 1.2133316932173793E9 ; 6.996155608927052E9 ; 1.8485399083689667E11 ; 0.0
162 ; 4.219753826455309E7 ; 1.2133899748870747E9 ; 7.038392942885028E9 ; 1.8606732253011404E11 ; 0.0
163 ; 4.216127959090884E7 ; 1.2134480909404097E9 ; 7.080590481149581E9 ; 1.8728071250500113E11 ; 0.0
164 ; 4.212743579304464E7 ; 1.2135060394511852E9 ; 7.12275176074049E9 ; 1.8849416059594153E11 ; 0.0
165 ; 4.2090314190629765E7 ; 1.2135638185148835E9 ; 7.164879196533535E9 ; 1.897076666353927E11 ; 0.0
166 ; 4.205892194026272E7 ; 1.213621426248197E9 ; 7.206969510724165E9 ; 1.909212304539076E11 ; 0.0
167 ; 4.2018518090131775E7 ; 1.2136788607885764E9 ; 7.249028432664428E9 ; 1.921348518801558E11 ; 0.0
168 ; 4.198277608271023E7 ; 1.213736120293786E9 ; 7.2910469507545595E9 ; 1.9334853074094437E11 ; 0.0
169 ; 4.1943915270822145E7 ; 1.2137932029414847E9 ; 7.33302972683727E9 ; 1.9456226686123816E11 ; 0.0
170 ; 4.190471188643739E7 ; 1.2138501069288106E9 ; 7.374973642108092E9 ; 1.9577606006417966E11 ; 0.0
171 ; 4.1863269869303435E7 ; 1.213906830471987E9 ; 7.41687835399453E9 ; 1.9698991017110846E11 ; 0.0
172 ; 4.183075460557768E7 ; 1.2139633718059378E9 ; 7.458741623863833E9 ; 1.9820381700158044E11 ; 0.0
173 ; 4.179801065611533E7 ; 1.2140197291839173E9 ; 7.500572378469411E9 ; 1.9941778037338638E11 ; 0.0
174 ; 4.177231653323863E7 ; 1.2140759008771508E9 ; 7.542370389125526E9 ; 2.006318001025703E11 ; 0.0
175 ; 4.174854338010871E7 ; 1.214131885174489E9 ; 7.584142705658765E9 ; 2.0184587600344745E11 ; 0.0
176 ; 4.172658252606585E7 ; 1.2141876803820727E9 ; 7.625891249038874E9 ; 2.0306000788862195E11 ; 0.0
177 ; 4.1705055774609834E7 ; 1.2142432848230073E9 ; 7.6676178315649395E9 ; 2.0427419556900403E11 ; 0.0
178 ; 4.1682531710278906E7 ; 1.2142986968370514E9 ; 7.709322887339549E9 ; 2.0548843885382703E11 ; 0.0
179 ; 4.165998784434099E7 ; 1.214353914780311E9 ; 7.751005419049828E9 ; 2.0670273755066406E11 ; 0.0
180 ; 4.164115163621477E7 ; 1.21440893702495E9 ; 7.792665406894169E9 ; 2.0791709146544437E11 ; 0.0
181 ; 4.1612663117000505E7 ; 1.2144637619589021E9 ; 7.834306558530384E9 ; 2.0913150040246933E11 ; 0.0
182 ; 4.1589002842745356E7 ; 1.214518387985599E9 ; 7.875919221647385E9 ; 2.1034596416442822E11 ; 0.0
183 ; 4.15696610039293E7 ; 1.2145728135237036E9 ; 7.91750822449013E9 ; 2.1156048255241382E11 ; 0.0
184 ; 4.153865515490991E7 ; 1.2146270370068536E9 ; 7.95907788549406E9 ; 2.1277505536593753E11 ; 0.0
185 ; 4.152030887177528E7 ; 1.2146810568834124E9 ; 8.00061654064897E9 ; 2.139896824029444E11 ; 0.0
186 ; 4.149544505872002E7 ; 1.214734871616228E9 ; 8.042136849520745E9 ; 2.1520436345982782E11 ; 0.0
187 ; 4.147452633846006E7 ; 1.2147884796824007E9 ; 8.083632294579465E9 ; 2.1641909833144406E11 ; 0.0
188 ; 4.145212881105283E7 ; 1.2148418795730572E9 ; 8.125106820917925E9 ; 2.1763388681112646E11 ; 0.0
189 ; 4.142952329443307E7 ; 1.2148950697931314E9 ; 8.166558949728978E9 ; 2.1884872869069952E11 ; 0.0
190 ; 4.140983195682845E7 ; 1.2149480488611546E9 ; 8.207988473023411E9 ; 2.2006362376049265E11 ; 0.0
191 ; 4.138575792207158E7 ; 1.2150008153090491E9 ; 8.249398304980239E9 ; 2.212785718093538E11 ; 0.0
192 ; 4.1359978100421555E7 ; 1.2150533676819322E9 ; 8.29078406290231E9 ; 2.2249357262466284E11 ; 0.0
193 ; 4.133503614619136E7 ; 1.215105704537922E9 ; 8.332144041002732E9 ; 2.237086259923448E11 ; 0.0
194 ; 4.1315732693048194E7 ; 1.2151578244479523E9 ; 8.373479077148924E9 ; 2.2492373169688272E11 ; 0.0
195 ; 4.128507412100773E7 ; 1.215209725995594E9 ; 8.414794809841972E9 ; 2.261388895213307E11 ; 0.0
196 ; 4.12700820609519E7 ; 1.215261407776879E9 ; 8.45607988396298E9 ; 2.273540992473263E11 ; 0.0
