CSV File for the Network on Day 111
1 - Minute m 
2 - Power Consumed at minute m 
3 - Power Produced at minute m 
4 - Energy Consumed since the beginning of the day 
5 - Energy Produced since the beginning of the day 
6 - Energy Lost since the beginning of the day 
 
0 ; 3.888334719100539E7 ; 6.353315913212247E8 ; 0.0 ; 0.0 ; 0.0
1 ; 3.8928444060028106E7 ; 6.362425090131248E8 ; 3.888334719100539E7 ; 6.353315913212247E8 ; 0.0
2 ; 3.8964078715845175E7 ; 6.390068112436944E8 ; 7.781179125103348E7 ; 1.2715741003343496E9 ; 0.0
3 ; 3.901000122760907E7 ; 6.436245133761373E8 ; 1.1677586996687865E8 ; 1.910580911578044E9 ; 0.0
4 ; 3.907002389723861E7 ; 6.500956291662282E8 ; 1.5578587119448772E8 ; 2.554205424954181E9 ; 0.0
5 ; 3.915175744591598E7 ; 6.58420170690301E8 ; 1.9485589509172633E8 ; 3.2043010541204095E9 ; 0.0
6 ; 3.924169219963778E7 ; 6.685981482808872E8 ; 2.340076525376423E8 ; 3.8627212248107104E9 ; 0.0
7 ; 3.936765866465999E7 ; 6.806295704708016E8 ; 2.732493447372801E8 ; 4.531319373091598E9 ; 0.0
8 ; 3.956317200544576E7 ; 6.945144439463726E8 ; 3.1261700340194005E8 ; 5.211948943562399E9 ; 0.0
9 ; 3.9836124117200725E7 ; 7.102527735104198E8 ; 3.521801754073858E8 ; 5.906463387508772E9 ; 0.0
10 ; 4.027662397567204E7 ; 7.278445620554547E8 ; 3.9201629952458656E8 ; 6.616716161019192E9 ; 0.0
11 ; 4.096535598731939E7 ; 7.472898105474571E8 ; 4.3229292350025856E8 ; 7.344560723074646E9 ; 0.0
12 ; 4.207462702284831E7 ; 7.685885180204468E8 ; 4.73258279487578E8 ; 8.091850533622103E9 ; 0.0
13 ; 4.3137268033684924E7 ; 7.917406815819125E8 ; 5.153329065104263E8 ; 8.86043905164255E9 ; 0.0
14 ; 4.32724271016446E7 ; 8.167462964290354E8 ; 5.584701745441113E8 ; 9.652179733224463E9 ; 0.0
15 ; 4.331834431243284E7 ; 8.436053558754859E8 ; 6.017426016457559E8 ; 1.0468926029653498E10 ; 0.0
16 ; 4.337378759969128E7 ; 8.723178513884504E8 ; 6.450609459581888E8 ; 1.1312531385528984E10 ; 0.0
17 ; 4.342206313730298E7 ; 9.028837726353965E8 ; 6.8843473355788E8 ; 1.2184849236917435E10 ; 0.0
18 ; 4.347544374894289E7 ; 9.353031075399907E8 ; 7.31856796695183E8 ; 1.3087733009552832E10 ; 0.0
19 ; 4.352421713269278E7 ; 9.695758423464582E8 ; 7.753322404441259E8 ; 1.4023036117092823E10 ; 0.0
20 ; 4.358048797078602E7 ; 1.0057019616915948E9 ; 8.188564575768187E8 ; 1.4992611959439281E10 ; 0.0
21 ; 4.363429412184991E7 ; 1.0436814486835737E9 ; 8.624369455476047E8 ; 1.5998313921130877E10 ; 0.0
22 ; 4.3683132625229865E7 ; 1.0835142849866242E9 ; 9.060712396694546E8 ; 1.704199536981445E10 ; 0.0
23 ; 4.3741942811631985E7 ; 1.125200450910639E9 ; 9.497543722946844E8 ; 1.8125509654801075E10 ; 0.0
24 ; 4.379227767042029E7 ; 1.1687399255047312E9 ; 9.934963151063164E8 ; 1.9250710105711716E10 ; 0.0
25 ; 4.384647121613611E7 ; 1.206260932042889E9 ; 1.0372885927767367E9 ; 2.0419450031216446E10 ; 0.0
26 ; 4.389170699751309E7 ; 1.2062847343439314E9 ; 1.081135063992873E9 ; 2.1625710963259335E10 ; 0.0
27 ; 4.394541027644421E7 ; 1.206309924020632E9 ; 1.125026770990386E9 ; 2.2831995697603268E10 ; 0.0
28 ; 4.400086508234358E7 ; 1.2063364760602922E9 ; 1.1689721812668302E9 ; 2.40383056216239E10 ; 0.0
29 ; 4.404683411050001E7 ; 1.206364364683572E9 ; 1.2129730463491738E9 ; 2.5244642097684193E10 ; 0.0
30 ; 4.4098544439779595E7 ; 1.206393563442511E9 ; 1.257019880459674E9 ; 2.6451006462367764E10 ; 0.0
31 ; 4.414283148453506E7 ; 1.2064240453165221E9 ; 1.3011184248994534E9 ; 2.7657400025810276E10 ; 0.0
32 ; 4.419638635682685E7 ; 1.20645578280575E9 ; 1.3452612563839884E9 ; 2.8863824071126797E10 ; 0.0
33 ; 4.424263236699205E7 ; 1.2064887480212584E9 ; 1.3894576427408152E9 ; 3.007027985393255E10 ; 0.0
34 ; 4.428281356942554E7 ; 1.2065229127715936E9 ; 1.4337002751078072E9 ; 3.1276768601953808E10 ; 0.0
35 ; 4.433420592098697E7 ; 1.206558248645347E9 ; 1.4779830886772327E9 ; 3.2483291514725403E10 ; 0.0
36 ; 4.437118926920277E7 ; 1.2065947270894175E9 ; 1.5223172945982196E9 ; 3.368984976337075E10 ; 0.0
37 ; 4.441353469015663E7 ; 1.2066323194827425E9 ; 1.5666884838674223E9 ; 3.489644449046017E10 ; 0.0
38 ; 4.445346517859654E7 ; 1.2066709972053447E9 ; 1.611102018557579E9 ; 3.610307680994291E10 ; 0.0
39 ; 4.449006670048201E7 ; 1.2067107317025902E9 ; 1.6555554837361755E9 ; 3.7309747807148254E10 ; 0.0
40 ; 4.453056182406464E7 ; 1.206751494544626E9 ; 1.7000455504366574E9 ; 3.8516458538850845E10 ; 0.0
41 ; 4.456119397994455E7 ; 1.206793257481002E9 ; 1.7445761122607222E9 ; 3.972321003339547E10 ; 0.0
42 ; 4.4601387726958215E7 ; 1.2068359924905436E9 ; 1.7891373062406666E9 ; 4.093000329087647E10 ; 0.0
43 ; 4.463324282161586E7 ; 1.2068796718265636E9 ; 1.833738693967625E9 ; 4.213683928336702E10 ; 0.0
44 ; 4.466397648674459E7 ; 1.2069242680575538E9 ; 1.8783719367892408E9 ; 4.334371895519358E10 ; 0.0
45 ; 4.468970079028536E7 ; 1.2069697541035018E9 ; 1.9230359132759855E9 ; 4.455064322325114E10 ; 0.0
46 ; 4.471410287968112E7 ; 1.20701610326803E9 ; 1.9677256140662708E9 ; 4.575761297735464E10 ; 0.0
47 ; 4.473635277884938E7 ; 1.2070632892665396E9 ; 2.012439716945952E9 ; 4.6964629080622665E10 ; 0.0
48 ; 4.476493165652126E7 ; 1.2071112862505815E9 ; 2.0571760697248013E9 ; 4.8171692369889206E10 ; 0.0
49 ; 4.477804873867424E7 ; 1.2071600688286686E9 ; 2.1019410013813226E9 ; 4.9378803656139786E10 ; 0.0
50 ; 4.4800469998889804E7 ; 1.2072096120837562E9 ; 2.1467190501199968E9 ; 5.058596372496845E10 ; 0.0
51 ; 4.4816025302364364E7 ; 1.2072598915876176E9 ; 2.1915195201188865E9 ; 5.179317333705221E10 ; 0.0
52 ; 4.483336160068953E7 ; 1.2073108834123416E9 ; 2.236335545421251E9 ; 5.3000433228639824E10 ; 0.0
53 ; 4.4852601226012774E7 ; 1.20736256413917E9 ; 2.28116890702194E9 ; 5.420774411205216E10 ; 0.0
54 ; 4.4856770748590186E7 ; 1.2074149108649015E9 ; 2.326021508247953E9 ; 5.541510667619133E10 ; 0.0
55 ; 4.487615743064541E7 ; 1.2074679012060635E9 ; 2.370878278996543E9 ; 5.662252158705623E10 ; 0.0
56 ; 4.489754838775821E7 ; 1.207521513301061E9 ; 2.4157544364271884E9 ; 5.782998948826229E10 ; 0.0
57 ; 4.490059281494598E7 ; 1.2075757258104944E9 ; 2.4606519848149467E9 ; 5.9037511001563354E10 ; 0.0
58 ; 4.49178053735175E7 ; 1.2076305179158294E9 ; 2.505552577629893E9 ; 6.024508672737385E10 ; 0.0
59 ; 4.493255554009585E7 ; 1.2076858693165958E9 ; 2.5504703830034103E9 ; 6.145271724528968E10 ; 0.0
60 ; 4.495333964238128E7 ; 1.2077417602262733E9 ; 2.595402938543506E9 ; 6.266040311460628E10 ; 0.0
61 ; 4.495860207955785E7 ; 1.2077981713670251E9 ; 2.6403562781858873E9 ; 6.386814487483255E10 ; 0.0
62 ; 4.497281638585048E7 ; 1.2078550839634144E9 ; 2.685314880265445E9 ; 6.507594304619958E10 ; 0.0
63 ; 4.4991771139930375E7 ; 1.2079124797352412E9 ; 2.7302876966512957E9 ; 6.6283798130162994E10 ; 0.0
64 ; 4.500451607620673E7 ; 1.2079703408896165E9 ; 2.775279467791226E9 ; 6.749171060989824E10 ; 0.0
65 ; 4.501420209488061E7 ; 1.2080286501123924E9 ; 2.8202839838674326E9 ; 6.869968095078786E10 ; 0.0
66 ; 4.50181476401057E7 ; 1.2080873905590425E9 ; 2.865298185962313E9 ; 6.990770960090025E10 ; 0.0
67 ; 4.502861051755656E7 ; 1.2081465458450963E9 ; 2.910316333602419E9 ; 7.111579699145929E10 ; 0.0
68 ; 4.5036383565320335E7 ; 1.2082061000362043E9 ; 2.9553449441199756E9 ; 7.232394353730438E10 ; 0.0
69 ; 4.5050057028001234E7 ; 1.2082660376379142E9 ; 3.000381327685296E9 ; 7.353214963734059E10 ; 0.0
70 ; 4.505660289800008E7 ; 1.2083263435852315E9 ; 3.0454313847132974E9 ; 7.47404156749785E10 ; 0.0
71 ; 4.506915414699806E7 ; 1.2083870032320204E9 ; 3.0904879876112976E9 ; 7.594874201856374E10 ; 0.0
72 ; 4.508521579848704E7 ; 1.2084480023403058E9 ; 3.1355571417582955E9 ; 7.715712902179576E10 ; 0.0
73 ; 4.508715191359344E7 ; 1.2085093270695262E9 ; 3.1806423575567827E9 ; 7.836557702413606E10 ; 0.0
74 ; 4.510087629116568E7 ; 1.208570963965778E9 ; 3.225729509470376E9 ; 7.957408635120558E10 ; 0.0
75 ; 4.510676141479179E7 ; 1.208632899951097E9 ; 3.270830385761542E9 ; 8.078265731517136E10 ; 0.0
76 ; 4.511605198332576E7 ; 1.208695122312803E9 ; 3.3159371471763334E9 ; 8.199129021512245E10 ; 0.0
77 ; 4.51208073892666E7 ; 1.208757618692946E9 ; 3.3610531991596594E9 ; 8.319998533743526E10 ; 0.0
78 ; 4.5123402167203166E7 ; 1.2088203770778732E9 ; 3.406174006548926E9 ; 8.44087429561282E10 ; 0.0
79 ; 4.51053961446192E7 ; 1.2088833857879446E9 ; 3.451297408716129E9 ; 8.561756333320609E10 ; 0.0
80 ; 4.510272288050041E7 ; 1.2089466334674108E9 ; 3.496402804860748E9 ; 8.682644671899403E10 ; 0.0
81 ; 4.508557688758182E7 ; 1.2090101090744758E9 ; 3.541505527741248E9 ; 8.803539335246144E10 ; 0.0
82 ; 4.508244839264162E7 ; 1.2090738018715503E9 ; 3.58659110462883E9 ; 8.924440346153592E10 ; 0.0
83 ; 4.5076053077515334E7 ; 1.2091377014157145E9 ; 3.6316735530214715E9 ; 9.045347726340747E10 ; 0.0
84 ; 4.5069754301501535E7 ; 1.2092017975493932E9 ; 3.6767496060989866E9 ; 9.166261496482318E10 ; 0.0
85 ; 4.506792098042111E7 ; 1.2092660803912535E9 ; 3.7218193604004884E9 ; 9.287181676237257E10 ; 0.0
86 ; 4.505221983139043E7 ; 1.2093305403273294E9 ; 3.7668872813809094E9 ; 9.408108284276382E10 ; 0.0
87 ; 4.50423106780103E7 ; 1.2093951680023751E9 ; 3.8119395012123E9 ; 9.529041338309116E10 ; 0.0
88 ; 4.502864214005936E7 ; 1.2094599543114538E9 ; 3.8569818118903103E9 ; 9.649980855109354E10 ; 0.0
89 ; 4.5018186319581404E7 ; 1.2095248903917582E9 ; 3.9020104540303698E9 ; 9.770926850540498E10 ; 0.0
90 ; 4.500976542788005E7 ; 1.2095899676146655E9 ; 3.9470286403499513E9 ; 9.891879339579674E10 ; 0.0
91 ; 4.499462942911149E7 ; 1.2096551775780265E9 ; 3.992038405777831E9 ; 1.001283833634114E11 ; 0.0
92 ; 4.498689499128978E7 ; 1.2097205120986838E9 ; 4.0370330352069426E9 ; 1.0133803854098944E11 ; 0.0
93 ; 4.497459194488638E7 ; 1.2097859632052226E9 ; 4.082019930198232E9 ; 1.0254775905308812E11 ; 0.0
94 ; 4.496411109427204E7 ; 1.2098515231309433E9 ; 4.1269945221431184E9 ; 1.0375754501629333E11 ; 0.0
95 ; 4.495357313201811E7 ; 1.209917184307062E9 ; 4.1719586332373905E9 ; 1.0496739653942429E11 ; 0.0
96 ; 4.493396746915035E7 ; 1.2099829393561249E9 ; 4.2169122063694086E9 ; 1.0617731372373135E11 ; 0.0
97 ; 4.492052560650052E7 ; 1.2100487810856411E9 ; 4.261846173838559E9 ; 1.0738729666308748E11 ; 0.0
98 ; 4.4916946438668266E7 ; 1.2101147024819248E9 ; 4.30676669944506E9 ; 1.0859734544417313E11 ; 0.0
99 ; 4.489458263203597E7 ; 1.2101806967041414E9 ; 4.351683645883728E9 ; 1.0980746014665504E11 ; 0.0
100 ; 4.488049044959177E7 ; 1.2102467570785563E9 ; 4.396578228515764E9 ; 1.1101764084335919E11 ; 0.0
101 ; 4.48703791951055E7 ; 1.2103128770929787E9 ; 4.441458718965356E9 ; 1.1222788760043774E11 ; 0.0
102 ; 4.4852501264162004E7 ; 1.210379050391396E9 ; 4.486329098160461E9 ; 1.1343820047753072E11 ; 0.0
103 ; 4.483718987490055E7 ; 1.2104452707687922E9 ; 4.5311815994246235E9 ; 1.1464857952792212E11 ; 0.0
104 ; 4.482197164121561E7 ; 1.2105115321661487E9 ; 4.576018789299524E9 ; 1.1585902479869092E11 ; 0.0
105 ; 4.480310637825167E7 ; 1.2105778286656172E9 ; 4.62084076094074E9 ; 1.1706953633085707E11 ; 0.0
106 ; 4.479139016274594E7 ; 1.2106441544858656E9 ; 4.665643867318992E9 ; 1.1828011415952269E11 ; 0.0
107 ; 4.476911708590523E7 ; 1.210710503977584E9 ; 4.710435257481737E9 ; 1.1949075831400856E11 ; 0.0
108 ; 4.475618041647801E7 ; 1.2107768716191533E9 ; 4.755204374567642E9 ; 1.2070146881798615E11 ; 0.0
109 ; 4.4734994827411905E7 ; 1.2108432520124676E9 ; 4.79996055498412E9 ; 1.219122456896053E11 ; 0.0
110 ; 4.471965225712268E7 ; 1.2109096398789027E9 ; 4.844695549811532E9 ; 1.2312308894161777E11 ; 0.0
111 ; 4.4700782184793554E7 ; 1.2109760300554316E9 ; 4.889415202068655E9 ; 1.2433399858149667E11 ; 0.0
112 ; 4.468020284907168E7 ; 1.2110424174908805E9 ; 4.9341159842534485E9 ; 1.2554497461155211E11 ; 0.0
113 ; 4.465932726050034E7 ; 1.2111087972423143E9 ; 4.97879618710252E9 ; 1.2675601702904298E11 ; 0.0
114 ; 4.464313494766656E7 ; 1.2111751644715576E9 ; 5.02345551436302E9 ; 1.279671258262853E11 ; 0.0
115 ; 4.4621557420672506E7 ; 1.2112415144418385E9 ; 5.068098649310686E9 ; 1.2917830099075685E11 ; 0.0
116 ; 4.459965599003804E7 ; 1.211307842514552E9 ; 5.112720206731359E9 ; 1.3038954250519868E11 ; 0.0
117 ; 4.4584600938452736E7 ; 1.2113741441461449E9 ; 5.157319862721396E9 ; 1.3160085034771324E11 ; 0.0
118 ; 4.4556946381816395E7 ; 1.2114404148851066E9 ; 5.201904463659849E9 ; 1.3281222449185939E11 ; 0.0
119 ; 4.454152765459606E7 ; 1.2115066503690758E9 ; 5.246461410041666E9 ; 1.3402366490674449E11 ; 0.0
120 ; 4.45192375491915E7 ; 1.2115728463220463E9 ; 5.291002937696262E9 ; 1.3523517155711357E11 ; 0.0
121 ; 4.449730222349532E7 ; 1.2116389985516765E9 ; 5.335522175245454E9 ; 1.3644674440343562E11 ; 0.0
122 ; 4.447380828533333E7 ; 1.2117051029466937E9 ; 5.380019477468949E9 ; 1.376583834019873E11 ; 0.0
123 ; 4.445235671736024E7 ; 1.2117711554743955E9 ; 5.424493285754283E9 ; 1.38870088504934E11 ; 0.0
124 ; 4.442800535953857E7 ; 1.211837152178239E9 ; 5.468945642471643E9 ; 1.400818596604084E11 ; 0.0
125 ; 4.4397094337081335E7 ; 1.2119030891755166E9 ; 5.5133736478311825E9 ; 1.4129369681258664E11 ; 0.0
126 ; 4.437750978309007E7 ; 1.2119689626551154E9 ; 5.557770742168263E9 ; 1.4250559990176215E11 ; 0.0
127 ; 4.435182583817317E7 ; 1.212034768875361E9 ; 5.602148251951353E9 ; 1.4371756886441727E11 ; 0.0
128 ; 4.433319827019489E7 ; 1.212100504161932E9 ; 5.646500077789526E9 ; 1.4492960363329263E11 ; 0.0
129 ; 4.430276155333691E7 ; 1.2121661649058557E9 ; 5.690833276059721E9 ; 1.4614170413745456E11 ; 0.0
130 ; 4.426620445822954E7 ; 1.212231747561571E9 ; 5.735136037613058E9 ; 1.473538703023604E11 ; 0.0
131 ; 4.423041497210685E7 ; 1.2122972486450634E9 ; 5.779402242071287E9 ; 1.48566102049922E11 ; 0.0
132 ; 4.419647529469706E7 ; 1.2123626647320662E9 ; 5.823632657043394E9 ; 1.4977839929856705E11 ; 0.0
133 ; 4.415644472708318E7 ; 1.2124279924563227E9 ; 5.867829132338091E9 ; 1.509907619632991E11 ; 0.0
134 ; 4.411075657432898E7 ; 1.2124932285079148E9 ; 5.911985577065174E9 ; 1.5220318995575543E11 ; 0.0
135 ; 4.407481712719322E7 ; 1.2125583696316485E9 ; 5.9560963336395035E9 ; 1.5341568318426334E11 ; 0.0
136 ; 4.403536881405324E7 ; 1.2126234126254961E9 ; 6.000171150766697E9 ; 1.54628241553895E11 ; 0.0
137 ; 4.39903368338322E7 ; 1.2126883543390944E9 ; 6.04420651958075E9 ; 1.5584086496652048E11 ; 0.0
138 ; 4.3946473144916445E7 ; 1.2127531916722956E9 ; 6.088196856414582E9 ; 1.5705355332085956E11 ; 0.0
139 ; 4.391227660675721E7 ; 1.2128179215737696E9 ; 6.132143329559499E9 ; 1.5826630651253186E11 ; 0.0
140 ; 4.3868051652076475E7 ; 1.2128825410396545E9 ; 6.176055606166256E9 ; 1.5947912443410562E11 ; 0.0
141 ; 4.382052457224608E7 ; 1.2129470471122556E9 ; 6.219923657818333E9 ; 1.6069200697514526E11 ; 0.0
142 ; 4.3779235323160395E7 ; 1.213011436878788E9 ; 6.263744182390579E9 ; 1.619049540222575E11 ; 0.0
143 ; 4.373654047103453E7 ; 1.2130757074701648E9 ; 6.307523417713739E9 ; 1.631179654591363E11 ; 0.0
144 ; 4.369385493563367E7 ; 1.213139856059827E9 ; 6.351259958184774E9 ; 1.6433104116660645E11 ; 0.0
145 ; 4.366936525352664E7 ; 1.2132038798626137E9 ; 6.394953813120408E9 ; 1.6554418102266626E11 ; 0.0
146 ; 4.364102846111442E7 ; 1.2132677761336703E9 ; 6.438623178373935E9 ; 1.6675738490252887E11 ; 0.0
147 ; 4.360921860954262E7 ; 1.213331542167397E9 ; 6.48226420683505E9 ; 1.6797065267866254E11 ; 0.0
148 ; 4.355167737101841E7 ; 1.2133951752964313E9 ; 6.525873425444592E9 ; 1.6918398422082993E11 ; 0.0
149 ; 4.347050156362124E7 ; 1.213458672890666E9 ; 6.569425102815611E9 ; 1.7039737939612634E11 ; 0.0
150 ; 4.338760620333005E7 ; 1.2135220323563018E9 ; 6.612895604379232E9 ; 1.71610838069017E11 ; 0.0
151 ; 4.3301178585314244E7 ; 1.2135852511349292E9 ; 6.656283210582562E9 ; 1.728243601013733E11 ; 0.0
152 ; 4.321072839593849E7 ; 1.2136483267026467E9 ; 6.699584389167876E9 ; 1.740379453525082E11 ; 0.0
153 ; 4.3128301412263975E7 ; 1.2137112565692043E9 ; 6.742795117563815E9 ; 1.7525159367921085E11 ; 0.0
154 ; 4.304766576707019E7 ; 1.213774038277178E9 ; 6.785923418976079E9 ; 1.7646530493578006E11 ; 0.0
155 ; 4.2954663656732954E7 ; 1.2138366694011722E9 ; 6.828971084743149E9 ; 1.7767907897405725E11 ; 0.0
156 ; 4.287363929904116E7 ; 1.2138991475470486E9 ; 6.871925748399881E9 ; 1.7889291564345844E11 ; 0.0
157 ; 4.278589652995705E7 ; 1.213961470351181E9 ; 6.914799387698922E9 ; 1.801068147910055E11 ; 0.0
158 ; 4.269515801803022E7 ; 1.2140236354797359E9 ; 6.957585284228879E9 ; 1.813207762613567E11 ; 0.0
159 ; 4.261595308665543E7 ; 1.2140856406279755E9 ; 7.000280442246909E9 ; 1.8253479989683643E11 ; 0.0
160 ; 4.252564594206946E7 ; 1.2141474835195847E9 ; 7.042896395333565E9 ; 1.8374888553746442E11 ; 0.0
161 ; 4.243927892630783E7 ; 1.2142091619060223E9 ; 7.085422041275634E9 ; 1.84963033020984E11 ; 0.0
162 ; 4.235427935709438E7 ; 1.2142706735658896E9 ; 7.1278613202019415E9 ; 1.8617724218289005E11 ; 0.0
163 ; 4.226545222462945E7 ; 1.2143320163043242E9 ; 7.170215599559036E9 ; 1.8739151285645593E11 ; 0.0
164 ; 4.218178852129489E7 ; 1.2143931879524107E9 ; 7.212481051783666E9 ; 1.8860584487276025E11 ; 0.0
165 ; 4.2087044300797015E7 ; 1.2144541863666124E9 ; 7.25466284030496E9 ; 1.8982023806071268E11 ; 0.0
166 ; 4.201037651168549E7 ; 1.2145150094282205E9 ; 7.296749884605758E9 ; 1.9103469224707928E11 ; 0.0
167 ; 4.192060696151434E7 ; 1.2145756550428226E9 ; 7.338760261117443E9 ; 1.922492072565075E11 ; 0.0
168 ; 4.182735467971565E7 ; 1.2146361211397882E9 ; 7.380680868078958E9 ; 1.9346378291155032E11 ; 0.0
169 ; 4.174328882079659E7 ; 1.214696405671769E9 ; 7.422508222758674E9 ; 1.9467841903269012E11 ; 0.0
170 ; 4.1655674275554E7 ; 1.2147565066142182E9 ; 7.464251511579471E9 ; 1.958931154383619E11 ; 0.0
171 ; 4.156146392656162E7 ; 1.2148164219649243E9 ; 7.505907185855024E9 ; 1.9710787194497614E11 ; 0.0
172 ; 4.1477111663306504E7 ; 1.2148761497435584E9 ; 7.547468649781586E9 ; 1.9832268836694107E11 ; 0.0
173 ; 4.138457725490911E7 ; 1.2149356879912388E9 ; 7.588945761444892E9 ; 1.9953756451668463E11 ; 0.0
174 ; 4.131379438047086E7 ; 1.2149950347701077E9 ; 7.630330338699801E9 ; 2.0075250020467587E11 ; 0.0
175 ; 4.123347441442844E7 ; 1.2150541881629217E9 ; 7.671644133080273E9 ; 2.0196749523944598E11 ; 0.0
176 ; 4.116031249733971E7 ; 1.2151131462726552E9 ; 7.712877607494701E9 ; 2.0318254942760892E11 ; 0.0
177 ; 4.108303356598006E7 ; 1.215171907222118E9 ; 7.754037919992041E9 ; 2.0439766257388156E11 ; 0.0
178 ; 4.1005211630778186E7 ; 1.2152304691535828E9 ; 7.795120953558021E9 ; 2.0561283448110367E11 ; 0.0
179 ; 4.093086427537067E7 ; 1.2152888302284262E9 ; 7.836126165188799E9 ; 2.0682806495025726E11 ; 0.0
180 ; 4.085957299420455E7 ; 1.21534698862678E9 ; 7.8770570294641695E9 ; 2.080433537804857E11 ; 0.0
181 ; 4.077975424449094E7 ; 1.2154049425471938E9 ; 7.917916602458374E9 ; 2.0925870076911246E11 ; 0.0
182 ; 4.070595814727437E7 ; 1.2154626902063088E9 ; 7.958696356702865E9 ; 2.1047410571165964E11 ; 0.0
183 ; 4.062733939476471E7 ; 1.2155202298385415E9 ; 7.999402314850139E9 ; 2.1168956840186594E11 ; 0.0
184 ; 4.055068461123627E7 ; 1.2155775596957755E9 ; 8.040029654244904E9 ; 2.1290508863170447E11 ; 0.0
185 ; 4.0471211472471505E7 ; 1.2156346780470672E9 ; 8.08058033885614E9 ; 2.1412066619140024E11 ; 0.0
186 ; 4.040021063050716E7 ; 1.2156915831783552E9 ; 8.121051550328611E9 ; 2.153363008694473E11 ; 0.0
187 ; 4.03245814637848E7 ; 1.215748273392185E9 ; 8.161451760959119E9 ; 2.1655199245262564E11 ; 0.0
188 ; 4.024325404503234E7 ; 1.2158047470074344E9 ; 8.201776342422904E9 ; 2.1776774072601782E11 ; 0.0
189 ; 4.016800181853369E7 ; 1.215861002359056E9 ; 8.2420195964679365E9 ; 2.1898354547302527E11 ; 0.0
190 ; 4.0090465542514235E7 ; 1.2159170377978206E9 ; 8.28218759828647E9 ; 2.2019940647538434E11 ; 0.0
191 ; 4.000814460309116E7 ; 1.2159728516900735E9 ; 8.322278063828984E9 ; 2.2141532351318216E11 ; 0.0
192 ; 3.9941419645729184E7 ; 1.2160284424174945E9 ; 8.3622862084320755E9 ; 2.2263129636487222E11 ; 0.0
193 ; 3.98587238467351E7 ; 1.2160838083768673E9 ; 8.402227628077805E9 ; 2.238473248072897E11 ; 0.0
194 ; 3.978762124817659E7 ; 1.2161389479798563E9 ; 8.44208635192454E9 ; 2.2506340861566656E11 ; 0.0
195 ; 3.970748710979401E7 ; 1.2161938596527894E9 ; 8.481873973172716E9 ; 2.2627954756364642E11 ; 0.0
196 ; 3.9643167134326935E7 ; 1.2162485418364463E9 ; 8.52158146028251E9 ; 2.2749574142329922E11 ; 0.0
