CSV File for the Network on Day 208
1 - Minute m 
2 - Power Consumed at minute m 
3 - Power Produced at minute m 
4 - Energy Consumed since the beginning of the day 
5 - Energy Produced since the beginning of the day 
6 - Energy Lost since the beginning of the day 
 
0 ; 502476.6431526066 ; 2.1070819960740158E8 ; 0.0 ; 0.0 ; 0.0
1 ; 507159.95627619844 ; 2.1101321444588837E8 ; 502476.6431526066 ; 2.1070819960740158E8 ; 356.14
2 ; 512538.0566750151 ; 2.1193586486182788E8 ; 1009636.599428805 ; 4.2172141405328995E8 ; 712.28
3 ; 517484.43145833805 ; 2.1347616029600862E8 ; 1522174.65610382 ; 6.336572789151179E8 ; 1068.42
4 ; 521812.27685438894 ; 2.1563410942491707E8 ; 2039659.0875621582 ; 8.471334392111264E8 ; 1424.56
5 ; 526093.2323117263 ; 2.1840972004544005E8 ; 2561471.364416547 ; 1.0627675486360435E9 ; 1780.6999999999998
6 ; 532695.9302231898 ; 2.218029989658284E8 ; 3087564.5967282737 ; 1.2811772686814835E9 ; 2136.8399999999997
7 ; 535630.3269755712 ; 2.2581395190623346E8 ; 3620260.5269514634 ; 1.502980267647312E9 ; 2492.9799999999996
8 ; 540293.1408513857 ; 2.3044258341204122E8 ; 4155890.853927035 ; 1.7287942195535455E9 ; 2849.1199999999994
9 ; 542885.2997212836 ; 2.3568889678297046E8 ; 4696183.994778421 ; 1.9592368029655867E9 ; 3205.2599999999993
10 ; 546573.8585302331 ; 2.41552894020465E8 ; 5239069.294499705 ; 2.194925699748557E9 ; 3561.399999999999
11 ; 552322.0812432573 ; 2.480345757953162E8 ; 5785643.153029937 ; 2.436478593769022E9 ; 3917.539999999999
12 ; 554842.5371746254 ; 2.5513394143673262E8 ; 6337965.234273194 ; 2.684513169564338E9 ; 4273.679999999999
13 ; 558905.7524652359 ; 2.6285098894327047E8 ; 6892807.77144782 ; 2.939647111001071E9 ; 4629.82
14 ; 563575.9236858507 ; 2.7118571501521116E8 ; 7451713.523913056 ; 3.2024980999443417E9 ; 4985.96
15 ; 569119.9103643376 ; 2.8013811510716844E8 ; 8015289.447598906 ; 3.473683814959553E9 ; 5342.1
16 ; 571132.1181717692 ; 2.897081834989912E8 ; 8584409.357963243 ; 3.753821930066721E9 ; 5698.240000000001
17 ; 574072.0161534947 ; 2.998959133824284E8 ; 9155541.476135012 ; 4.043530113565712E9 ; 6054.380000000001
18 ; 578233.4337134858 ; 3.1070129696059334E8 ; 9729613.492288506 ; 4.34342602694814E9 ; 6410.520000000001
19 ; 582665.209385007 ; 3.221243255569995E8 ; 1.0307846926001992E7 ; 4.654127323908733E9 ; 6766.660000000002
20 ; 586608.9056379257 ; 3.341649897308584E8 ; 1.0890512135387E7 ; 4.976251649465733E9 ; 7122.800000000002
21 ; 589412.6729009675 ; 3.468232793954114E8 ; 1.1477121041024925E7 ; 5.310416639196591E9 ; 7478.940000000002
22 ; 594881.8244349672 ; 3.600991839362879E8 ; 1.2066533713925892E7 ; 5.657239918592003E9 ; 7835.080000000003
23 ; 596684.2602757501 ; 3.7399269232721275E8 ; 1.266141553836086E7 ; 6.017339102528291E9 ; 8191.220000000003
24 ; 603542.0867420735 ; 3.8850379324079245E8 ; 1.325809979863661E7 ; 6.391331794855503E9 ; 8547.360000000002
25 ; 606671.49238114 ; 4.010085569489224E8 ; 1.3861641885378683E7 ; 6.779835588096295E9 ; 8903.500000000002
26 ; 609710.1175554994 ; 4.010140674925028E8 ; 1.4468313377759824E7 ; 7.1808441450452175E9 ; 9259.640000000001
27 ; 613893.6689103974 ; 4.0101985181812406E8 ; 1.5078023495315323E7 ; 7.581858212537721E9 ; 9615.78
28 ; 616721.6814791472 ; 4.0102589834891427E8 ; 1.569191716422572E7 ; 7.9828780643558445E9 ; 9971.92
29 ; 621658.9005199659 ; 4.010321956385832E8 ; 1.6308638845704867E7 ; 8.383903962704759E9 ; 10328.06
30 ; 624375.7502848593 ; 4.01038732429342E8 ; 1.693029774622483E7 ; 8.784936158343342E9 ; 10684.199999999999
31 ; 628095.5907042918 ; 4.0104549770054555E8 ; 1.755467349650969E7 ; 9.185974890772684E9 ; 11040.339999999998
32 ; 630390.9223246576 ; 4.01052480708588E8 ; 1.8182769087213982E7 ; 9.58702038847323E9 ; 11396.479999999998
33 ; 635674.0381305715 ; 4.010596710187068E8 ; 1.881316000953864E7 ; 9.988072869181818E9 ; 11752.619999999997
34 ; 638455.3769551192 ; 4.0106705852943027E8 ; 1.944883404766921E7 ; 1.0389132540200525E10 ; 12108.759999999997
35 ; 643006.7540100233 ; 4.010746334904386E8 ; 2.0087289424624328E7 ; 1.0790199598729956E10 ; 12464.899999999996
36 ; 644610.4249744376 ; 4.01082386514617E8 ; 2.073029617863435E7 ; 1.1191274232220394E10 ; 12821.039999999995
37 ; 649293.2569856808 ; 4.0109030858506095E8 ; 2.1374906603608787E7 ; 1.1592356618735012E10 ; 13177.179999999995
38 ; 651294.9399340019 ; 4.010983910577551E8 ; 2.2024199860594466E7 ; 1.1993446927320072E10 ; 13533.319999999994
39 ; 654319.6320634176 ; 4.0110662566060066E8 ; 2.2675494800528467E7 ; 1.2394545318377827E10 ; 13889.459999999994
40 ; 658930.6064138295 ; 4.011150044894091E8 ; 2.3329814432591885E7 ; 1.2795651944038427E10 ; 14245.599999999993
41 ; 660077.4643717546 ; 4.011235200014169E8 ; 2.3988745039005715E7 ; 1.3196766948527836E10 ; 14601.739999999993
42 ; 663355.7539631226 ; 4.011321650068189E8 ; 2.464882250337747E7 ; 1.3597890468529253E10 ; 14957.879999999992
43 ; 664460.7033028495 ; 4.011409326587529E8 ; 2.5312178257340595E7 ; 1.3999022633536072E10 ; 15314.019999999991
44 ; 668279.5601441473 ; 4.0114981644211525E8 ; 2.5976638960643444E7 ; 1.4400163566194824E10 ; 15670.15999999999
45 ; 672157.025357451 ; 4.011588101615292E8 ; 2.6644918520787593E7 ; 1.480131338263694E10 ; 16026.29999999999
46 ; 675112.4313188881 ; 4.0116790792874396E8 ; 2.7317075546145044E7 ; 1.520247219279847E10 ; 16382.43999999999
47 ; 677286.7362715363 ; 4.01177104149693E8 ; 2.799218797746393E7 ; 1.5603640100727213E10 ; 16738.57999999999
48 ; 681224.7234414 ; 4.011863935114049E8 ; 2.866947471373547E7 ; 1.6004817204876905E10 ; 17094.71999999999
49 ; 684263.1314548821 ; 4.0119577096892345E8 ; 2.935069943717687E7 ; 1.640600359838831E10 ; 17450.85999999999
50 ; 684784.7612081128 ; 4.012052317323637E8 ; 3.003496256863175E7 ; 1.6807199369357233E10 ; 17806.99999999999
51 ; 687500.7972431375 ; 4.012147712542048E8 ; 3.0719747329839863E7 ; 1.7208404601089596E10 ; 18163.13999999999
52 ; 689453.0153546036 ; 4.0122438521689916E8 ; 3.1407248127083E7 ; 1.76096193723438E10 ; 18519.279999999988
53 ; 691190.9725034866 ; 4.0123406952085626E8 ; 3.2096701142437603E7 ; 1.80108437575607E10 ; 18875.419999999987
54 ; 692946.9950540612 ; 4.01243820272846E8 ; 3.278789211494109E7 ; 1.8412077827081554E10 ; 19231.559999999987
55 ; 694658.5309426995 ; 4.012536337748513E8 ; 3.3480839109995153E7 ; 1.88133216473544E10 ; 19587.699999999986
56 ; 697913.0600040115 ; 4.012635065133905E8 ; 3.417549764093785E7 ; 1.9214575281129253E10 ; 19943.839999999986
57 ; 699666.8423467947 ; 4.012734351493185E8 ; 3.487341070094186E7 ; 1.9615838787642643E10 ; 20299.979999999985
58 ; 702106.6043975614 ; 4.012834165081121E8 ; 3.5573077543288656E7 ; 2.001711222279196E10 ; 20656.119999999984
59 ; 703264.8799748428 ; 4.012934475706346E8 ; 3.627518414768621E7 ; 2.0418395639300076E10 ; 21012.259999999984
60 ; 704568.6540748348 ; 4.0130352546437514E8 ; 3.6978449027661055E7 ; 2.081968908687071E10 ; 21368.399999999983
61 ; 707779.8166378536 ; 4.01313647455149E8 ; 3.768301768173589E7 ; 2.1220992612335083E10 ; 21724.539999999983
62 ; 711050.2117149872 ; 4.013238109392487E8 ; 3.839079749837374E7 ; 2.1622306259790234E10 ; 22080.679999999982
63 ; 712737.3249543092 ; 4.013340134360281E8 ; 3.910184771008873E7 ; 2.202363007072948E10 ; 22436.81999999998
64 ; 716442.6022796566 ; 4.0134425258090377E8 ; 3.981458503504304E7 ; 2.242496408416551E10 ; 22792.95999999998
65 ; 718240.7578200235 ; 4.013545261187556E8 ; 4.0531027637322694E7 ; 2.282630833674641E10 ; 23149.09999999998
66 ; 718859.4819317606 ; 4.013648318977095E8 ; 4.124926839514272E7 ; 2.3227662862865166E10 ; 23505.23999999998
67 ; 721789.6929590487 ; 4.013751678632817E8 ; 4.196812787707448E7 ; 2.3629027694762875E10 ; 23861.37999999998
68 ; 725070.5473309692 ; 4.0138553205286837E8 ; 4.268991757003353E7 ; 2.4030402862626156E10 ; 24217.51999999998
69 ; 726526.4583656439 ; 4.013959225905613E8 ; 4.3414988117364496E7 ; 2.4431788394679024E10 ; 24573.659999999978
70 ; 727366.8862628951 ; 4.014063376822727E8 ; 4.414151457573014E7 ; 2.4833184317269585E10 ; 24929.799999999977
71 ; 729984.2724161885 ; 4.0141677561115074E8 ; 4.486888146199303E7 ; 2.523459065495186E10 ; 25285.939999999977
72 ; 730419.4476532151 ; 4.014272347332708E8 ; 4.559886573440922E7 ; 2.563600743056301E10 ; 25642.079999999976
73 ; 734795.197816019 ; 4.0143771347358483E8 ; 4.632928518206243E7 ; 2.6037434665296284E10 ; 25998.219999999976
74 ; 734804.7566254849 ; 4.0144821032211506E8 ; 4.7064080379878454E7 ; 2.6438872378769867E10 ; 26354.359999999975
75 ; 734972.7902740766 ; 4.014587238303766E8 ; 4.779888513650394E7 ; 2.6840320589091984E10 ; 26710.499999999975
76 ; 737473.8094530903 ; 4.0146925260801476E8 ; 4.853385792677802E7 ; 2.724177931292236E10 ; 27066.639999999974
77 ; 737523.1981119838 ; 4.0147979531964564E8 ; 4.927133173623111E7 ; 2.7643248565530373E10 ; 27422.779999999973
78 ; 740844.3570785457 ; 4.0149035068188506E8 ; 5.000885493434309E7 ; 2.8044728360850018E10 ; 27778.919999999973
79 ; 742914.9373700527 ; 4.0150091746055686E8 ; 5.074969929142164E7 ; 2.8446218711531902E10 ; 28135.059999999972
80 ; 745496.5966628263 ; 4.0151149446806693E8 ; 5.149261422879169E7 ; 2.884771962899246E10 ; 28491.19999999997
81 ; 744815.3614390559 ; 4.0152208056093466E8 ; 5.223811082545452E7 ; 2.9249231123460526E10 ; 28847.33999999997
82 ; 747547.8687038312 ; 4.015326746374705E8 ; 5.2982926186893575E7 ; 2.965075320402146E10 ; 29203.47999999997
83 ; 748753.1887428503 ; 4.015432756355915E8 ; 5.373047405559741E7 ; 3.005228587865893E10 ; 29559.61999999997
84 ; 750650.3159954755 ; 4.0155388253076565E8 ; 5.447922724434026E7 ; 3.0453829154294525E10 ; 29915.75999999997
85 ; 753052.4442240436 ; 4.015644943340771E8 ; 5.522987756033574E7 ; 3.085538303682529E10 ; 30271.89999999997
86 ; 754531.7481321285 ; 4.015751100904042E8 ; 5.5982930004559785E7 ; 3.1256947531159367E10 ; 30628.039999999968
87 ; 755578.8754564454 ; 4.015857288767046E8 ; 5.673746175269192E7 ; 3.165852264124977E10 ; 30984.179999999968
88 ; 758553.6964328289 ; 4.015963498003988E8 ; 5.749304062814836E7 ; 3.2060108370126476E10 ; 31340.319999999967
89 ; 759771.3786402785 ; 4.016069719978479E8 ; 5.825159432458119E7 ; 3.2461704719926876E10 ; 31696.459999999966
90 ; 760182.0560183285 ; 4.016175946329181E8 ; 5.901136570322147E7 ; 3.2863311691924725E10 ; 32052.599999999966
91 ; 761805.1092264104 ; 4.0162821689562786E8 ; 5.97715477592398E7 ; 3.3264929286557644E10 ; 32408.739999999965
92 ; 762016.6700401228 ; 4.0163883800087136E8 ; 6.053335286846621E7 ; 3.366655750345327E10 ; 32764.879999999965
93 ; 763818.9630050579 ; 4.016494571872145E8 ; 6.129536953850634E7 ; 3.406819634145414E10 ; 33121.01999999997
94 ; 765265.7332730371 ; 4.0166007371575856E8 ; 6.2059188501511395E7 ; 3.446984579864136E10 ; 33477.15999999997
95 ; 766567.6986066431 ; 4.0167068686906743E8 ; 6.282445423478443E7 ; 3.487150587235712E10 ; 33833.29999999997
96 ; 767567.6411872798 ; 4.016812959501544E8 ; 6.359102193339107E7 ; 3.527317655922618E10 ; 34189.439999999966
97 ; 767261.9641778119 ; 4.0169190028152514E8 ; 6.435858957457835E7 ; 3.567485785517634E10 ; 34545.579999999965
98 ; 770308.5736867617 ; 4.0170249920427275E8 ; 6.512585153875616E7 ; 3.607654975545786E10 ; 34901.719999999965
99 ; 771149.6683634515 ; 4.0171309207722306E8 ; 6.5896160112442926E7 ; 3.647825225466213E10 ; 35257.859999999964
100 ; 771328.7253595566 ; 4.017236782761261E8 ; 6.666730978080638E7 ; 3.687996534673936E10 ; 35613.99999999996
101 ; 773680.3650914165 ; 4.017342571928905E8 ; 6.743863850616594E7 ; 3.728168902501548E10 ; 35970.13999999996
102 ; 775300.5631483574 ; 4.0174482823486024E8 ; 6.821231887125735E7 ; 3.7683423282208374E10 ; 36326.27999999996
103 ; 775628.6024802685 ; 4.017553908241291E8 ; 6.898761943440571E7 ; 3.808516811044324E10 ; 36682.41999999996
104 ; 777447.0835036635 ; 4.017659443968916E8 ; 6.976324803688598E7 ; 3.8486923501267365E10 ; 37038.55999999996
105 ; 778610.895944119 ; 4.017764884028284E8 ; 7.054069512038964E7 ; 3.888868944566425E10 ; 37394.69999999996
106 ; 778938.5720951864 ; 4.017870223045239E8 ; 7.131930601633376E7 ; 3.9290465934067085E10 ; 37750.83999999996
107 ; 780832.8551886871 ; 4.0179754557691383E8 ; 7.209824458842894E7 ; 3.969225295637161E10 ; 38106.97999999996
108 ; 781945.2624721983 ; 4.018080577067617E8 ; 7.287907744361763E7 ; 4.0094050501948524E10 ; 38463.11999999996
109 ; 781723.408816255 ; 4.018185581921623E8 ; 7.366102270608982E7 ; 4.049585855965529E10 ; 38819.25999999996
110 ; 783955.2467061682 ; 4.0182904654207027E8 ; 7.444274611490607E7 ; 4.089767711784745E10 ; 39175.39999999996
111 ; 785040.4143515163 ; 4.018395222758528E8 ; 7.522670136161225E7 ; 4.129950616438952E10 ; 39531.53999999996
112 ; 787339.2393197324 ; 4.018499849228649E8 ; 7.601174177596377E7 ; 4.1701345686665375E10 ; 39887.67999999996
113 ; 786468.2203677286 ; 4.018604340220461E8 ; 7.67990810152835E7 ; 4.210319567158824E10 ; 40243.819999999956
114 ; 785580.7241428202 ; 4.01870869121537E8 ; 7.758554923565122E7 ; 4.250505610561029E10 ; 40599.959999999955
115 ; 787041.9711841642 ; 4.0188128977831537E8 ; 7.837112995979404E7 ; 4.290692697473183E10 ; 40956.099999999955
116 ; 789484.703661304 ; 4.018916955578493E8 ; 7.915817193097821E7 ; 4.330880826451014E10 ; 41312.239999999954
117 ; 788950.4681579977 ; 4.019020860337683E8 ; 7.994765663463952E7 ; 4.3710699960067986E10 ; 41668.379999999954
118 ; 789996.0980854492 ; 4.0191246078754985E8 ; 8.073660710279751E7 ; 4.411260204610175E10 ; 42024.51999999995
119 ; 791029.8270500138 ; 4.019228194082215E8 ; 8.152660320088296E7 ; 4.4514514506889305E10 ; 42380.65999999995
120 ; 792922.9907044074 ; 4.019331614920765E8 ; 8.231763302793297E7 ; 4.491643732629752E10 ; 42736.79999999995
121 ; 792608.3700154453 ; 4.019434866424045E8 ; 8.311055601863737E7 ; 4.53183704877896E10 ; 43092.93999999995
122 ; 794215.4382755028 ; 4.019537944692335E8 ; 8.390316438865282E7 ; 4.5720313974432E10 ; 43449.07999999995
123 ; 792432.6474307624 ; 4.0196408458908486E8 ; 8.469737982692832E7 ; 4.612226776890123E10 ; 43805.21999999995
124 ; 791780.0023933467 ; 4.0197435662474006E8 ; 8.548981247435908E7 ; 4.652423185349032E10 ; 44161.35999999995
125 ; 792879.0690143248 ; 4.019846102050173E8 ; 8.628159247675243E7 ; 4.692620621011506E10 ; 44517.49999999995
126 ; 792600.2510089807 ; 4.019948449645599E8 ; 8.707447154576676E7 ; 4.7328190820320076E10 ; 44873.63999999995
127 ; 791622.9931311455 ; 4.02005060543633E8 ; 8.786707179677574E7 ; 4.773018566528464E10 ; 45229.77999999995
128 ; 791192.3391459621 ; 4.020152565879308E8 ; 8.865869478990689E7 ; 4.813219072582827E10 ; 45585.91999999995
129 ; 790290.9159758181 ; 4.020254327483924E8 ; 8.944988712905285E7 ; 4.85342059824162E10 ; 45942.05999999995
130 ; 789473.4388131741 ; 4.02035588681025E8 ; 9.024017804502867E7 ; 4.893623141516459E10 ; 46298.199999999946
131 ; 790295.6787267338 ; 4.020457240467365E8 ; 9.102965148384185E7 ; 4.933826700384561E10 ; 46654.339999999946
132 ; 789503.9660817294 ; 4.020558385111748E8 ; 9.181994716256858E7 ; 4.974031272789235E10 ; 47010.479999999945
133 ; 788614.9401622609 ; 4.0206593174457437E8 ; 9.260945112865031E7 ; 5.014236856640353E10 ; 47366.619999999944
134 ; 790209.3041680311 ; 4.020760034216099E8 ; 9.339806606881256E7 ; 5.05444344981481E10 ; 47722.759999999944
135 ; 789928.4263859462 ; 4.02086053221256E8 ; 9.41882753729806E7 ; 5.094651050156971E10 ; 48078.89999999994
136 ; 792997.5469863542 ; 4.0209608082665384E8 ; 9.497820379936653E7 ; 5.134859655479096E10 ; 48435.03999999994
137 ; 791395.2006015715 ; 4.021060859249827E8 ; 9.577120134635289E7 ; 5.1750692635617615E10 ; 48791.17999999994
138 ; 793291.0931180037 ; 4.021160682073377E8 ; 9.656259654695447E7 ; 5.2152798721542595E10 ; 49147.31999999994
139 ; 792540.4041828212 ; 4.021260273686125E8 ; 9.735588764007246E7 ; 5.255491478974993E10 ; 49503.45999999994
140 ; 791288.0172507537 ; 4.021359631073877E8 ; 9.814842804425529E7 ; 5.2957040817118546E10 ; 49859.59999999994
141 ; 791093.6658778067 ; 4.0214587512582314E8 ; 9.893971606150603E7 ; 5.335917678022594E10 ; 50215.73999999994
142 ; 791786.842150018 ; 4.021557631295553E8 ; 9.973080972738384E7 ; 5.376132265535176E10 ; 50571.87999999994
143 ; 792125.107161782 ; 4.021656268275991E8 ; 1.0052259656953385E8 ; 5.4163478418481316E10 ; 50928.01999999994
144 ; 792742.5768377119 ; 4.021754659322538E8 ; 1.0131472167669563E8 ; 5.4565644045308914E10 ; 51284.15999999994
145 ; 792573.2815540766 ; 4.021852801590125E8 ; 1.0210746425353335E8 ; 5.4967819511241165E10 ; 51640.29999999994
146 ; 792531.4373749302 ; 4.021950692264761E8 ; 1.0290003753508742E8 ; 5.537000479140018E10 ; 51996.43999999994
147 ; 797351.8555611833 ; 4.022048328562702E8 ; 1.0369256897246236E8 ; 5.5772199860626656E10 ; 52352.579999999936
148 ; 797541.5533436241 ; 4.02214570772966E8 ; 1.0448992082802354E8 ; 5.6174404693482925E10 ; 52708.719999999936
149 ; 799263.9064729217 ; 4.0222428270400393E8 ; 1.0528746238136716E8 ; 5.657661926425589E10 ; 53064.859999999935
150 ; 801591.6772838044 ; 4.022339683796208E8 ; 1.0608672628784008E8 ; 5.697884354695989E10 ; 53420.999999999935
151 ; 801953.9233379166 ; 4.0224362753277993E8 ; 1.0688831796512389E8 ; 5.7381077515339516E10 ; 53777.139999999934
152 ; 804135.4706885699 ; 4.0225325989910406E8 ; 1.0769027188846181E8 ; 5.77833211428723E10 ; 54133.27999999993
153 ; 804684.8337196762 ; 4.022628652168107E8 ; 1.0849440735915038E8 ; 5.81855744027714E10 ; 54489.41999999993
154 ; 808039.2148975148 ; 4.022724432266507E8 ; 1.0929909219287005E8 ; 5.858783726798821E10 ; 54845.55999999993
155 ; 809657.3529153568 ; 4.022819936718488E8 ; 1.1010713140776756E8 ; 5.899010971121487E10 ; 55201.69999999993
156 ; 812661.9864787197 ; 4.022915162980466E8 ; 1.1091678876068293E8 ; 5.939239170488672E10 ; 55557.83999999993
157 ; 814288.6720555398 ; 4.023010108532481E8 ; 1.1172945074716164E8 ; 5.979468322118477E10 ; 55913.97999999993
158 ; 816579.6435461728 ; 4.0231047708776736E8 ; 1.1254373941921718E8 ; 6.019698423203802E10 ; 56270.11999999993
159 ; 817601.9402927004 ; 4.02319914754178E8 ; 1.1336031906276336E8 ; 6.0599294709125786E10 ; 56626.25999999993
160 ; 818949.538600055 ; 4.0232932360726464E8 ; 1.1417792100305606E8 ; 6.100161462387997E10 ; 56982.39999999993
161 ; 821938.2250731377 ; 4.0233870340397686E8 ; 1.1499687054165612E8 ; 6.140394394748723E10 ; 57338.53999999993
162 ; 821568.2793184012 ; 4.023480539033842E8 ; 1.1581880876672927E8 ; 6.1806282650891205E10 ; 57694.67999999993
163 ; 822912.8857783001 ; 4.0235737486663353E8 ; 1.1664037704604767E8 ; 6.2208630704794586E10 ; 58050.81999999993
164 ; 825903.955478746 ; 4.0236666605690765E8 ; 1.1746328993182597E8 ; 6.261098807966122E10 ; 58406.95999999993
165 ; 827370.7464729142 ; 4.023759272393857E8 ; 1.1828919388730471E8 ; 6.3013354745718124E10 ; 58763.099999999926
166 ; 829409.4165594149 ; 4.0238515818120545E8 ; 1.1911656463377762E8 ; 6.341573067295751E10 ; 59119.239999999925
167 ; 830493.2350942992 ; 4.023943586514261E8 ; 1.1994597405033703E8 ; 6.381811583113872E10 ; 59475.379999999925
168 ; 829199.3319089531 ; 4.0240352842099357E8 ; 1.2077646728543133E8 ; 6.4220510189790146E10 ; 59831.519999999924
169 ; 832512.6152814986 ; 4.024126672627064E8 ; 1.2160566661734028E8 ; 6.4622913718211136E10 ; 60187.65999999992
170 ; 834654.2090404255 ; 4.0242177495118356E8 ; 1.2243817923262177E8 ; 6.502532638547384E10 ; 60543.79999999992
171 ; 835636.4162114369 ; 4.0243085126283276E8 ; 1.2327283344166219E8 ; 6.5427748160425026E10 ; 60899.93999999992
172 ; 837288.6885272127 ; 4.0243989597582066E8 ; 1.2410846985787363E8 ; 6.583017901168786E10 ; 61256.07999999992
173 ; 839627.6592072565 ; 4.0244890887004375E8 ; 1.2494575854640085E8 ; 6.623261890766368E10 ; 61612.21999999992
174 ; 840843.4280058048 ; 4.024578897271006E8 ; 1.257853862056081E8 ; 6.663506781653372E10 ; 61968.35999999992
175 ; 842528.4701693803 ; 4.0246683833026516E8 ; 1.266262296336139E8 ; 6.7037525706260826E10 ; 62324.49999999992
176 ; 844004.2418186569 ; 4.0247575446446085E8 ; 1.2746875810378328E8 ; 6.7439992544591095E10 ; 62680.63999999992
177 ; 847561.1126718618 ; 4.024846379162357E8 ; 1.2831276234560193E8 ; 6.784246829905556E10 ; 63036.77999999992
