CSV File for the Network on Day 86
1 - Minute m 
2 - Power Consumed at minute m 
3 - Power Produced at minute m 
4 - Energy Consumed since the beginning of the day 
5 - Energy Produced since the beginning of the day 
6 - Energy Lost since the beginning of the day 
 
0 ; 3.860827435691318E7 ; 6.349713268466032E8 ; 0.0 ; 0.0 ; 0.0
1 ; 3.865082306072081E7 ; 6.358820969887029E8 ; 3.860827435691318E7 ; 6.349713268466032E8 ; 0.0
2 ; 3.86940298931606E7 ; 6.386462622246705E8 ; 7.725909741763398E7 ; 1.2708534238353062E9 ; 0.0
3 ; 3.8734638227063105E7 ; 6.432638395009947E8 ; 1.1595312731079458E8 ; 1.9094996860599766E9 ; 0.0
4 ; 3.8796059361032374E7 ; 6.497348440136976E8 ; 1.5468776553785768E8 ; 2.5527635255609713E9 ; 0.0
5 ; 3.886598336161427E7 ; 6.580592891211262E8 ; 1.9348382489889005E8 ; 3.202498369574669E9 ; 0.0
6 ; 3.896423313742659E7 ; 6.682371862657664E8 ; 2.323498082605043E8 ; 3.860557658695795E9 ; 0.0
7 ; 3.908757019803804E7 ; 6.802685449061337E8 ; 2.713140413979309E8 ; 4.528794844961561E9 ; 0.0
8 ; 3.9277147700104505E7 ; 6.941533724596739E8 ; 3.1040161159596896E8 ; 5.209063389867695E9 ; 0.0
9 ; 3.955481068375762E7 ; 7.098916742574812E8 ; 3.4967875929607344E8 ; 5.903216762327369E9 ; 0.0
10 ; 3.998839472362157E7 ; 7.274834535114759E8 ; 3.8923356997983104E8 ; 6.61310843658485E9 ; 0.0
11 ; 4.067995838137363E7 ; 7.469287112945185E8 ; 4.292219647034526E8 ; 7.340591890096326E9 ; 0.0
12 ; 4.178889862484518E7 ; 7.68227446533748E8 ; 4.6990192308482623E8 ; 8.087520601390844E9 ; 0.0
13 ; 4.284922508798214E7 ; 7.913796560172447E8 ; 5.116908217096714E8 ; 8.855748047924593E9 ; 0.0
14 ; 4.297988608661262E7 ; 8.163853344139147E8 ; 5.545400467976536E8 ; 9.647127703941837E9 ; 0.0
15 ; 4.302307421910013E7 ; 8.432444743063111E8 ; 5.975199328842661E8 ; 1.0463513038355751E10 ; 0.0
16 ; 4.306920493717619E7 ; 8.719570662359201E8 ; 6.405430071033663E8 ; 1.1306757512662062E10 ; 0.0
17 ; 4.312333047053397E7 ; 9.025230987602539E8 ; 6.836122120405425E8 ; 1.2178714578897982E10 ; 0.0
18 ; 4.317576799655655E7 ; 9.349425585209666E8 ; 7.267355425110765E8 ; 1.3081237677658236E10 ; 0.0
19 ; 4.32296436570224E7 ; 9.692154303220361E8 ; 7.69911310507633E8 ; 1.4016180236179203E10 ; 0.0
20 ; 4.327674056480219E7 ; 1.0053416972169733E9 ; 8.131409541646553E8 ; 1.498539566650124E10 ; 0.0
21 ; 4.333259506376139E7 ; 1.0433213406039163E9 ; 8.564176947294575E8 ; 1.5990737363718212E10 ; 0.0
22 ; 4.338147783972604E7 ; 1.083154340327403E9 ; 8.997502897932189E8 ; 1.7034058704322128E10 ; 0.0
23 ; 4.343330273235511E7 ; 1.1248406747855923E9 ; 9.43131767632945E8 ; 1.8117213044649532E10 ; 0.0
24 ; 4.347755568716086E7 ; 1.1683803210416732E9 ; 9.865650703653E8 ; 1.9242053719435123E10 ; 0.0
25 ; 4.353179013236298E7 ; 1.2059015003273373E9 ; 1.0300426260524609E9 ; 2.0410434040476795E10 ; 0.0
26 ; 4.358147657108482E7 ; 1.2059254743802733E9 ; 1.0735744161848239E9 ; 2.161633554080413E10 ; 0.0
27 ; 4.3630852510281965E7 ; 1.2059508327103179E9 ; 1.1171558927559087E9 ; 2.2822261015184402E10 ; 0.0
28 ; 4.367899798962103E7 ; 1.2059775481963387E9 ; 1.1607867452661908E9 ; 2.4028211847894722E10 ; 0.0
29 ; 4.3727649299045846E7 ; 1.2060055929604955E9 ; 1.2044657432558117E9 ; 2.523418939609106E10 ; 0.0
30 ; 4.377429928910859E7 ; 1.2060349384806552E9 ; 1.2481933925548575E9 ; 2.6440194989051556E10 ; 0.0
31 ; 4.3821708521324486E7 ; 1.2060655556996412E9 ; 1.291967691843966E9 ; 2.764622992753221E10 ; 0.0
32 ; 4.387500994503379E7 ; 1.2060974151306179E9 ; 1.3357894003652904E9 ; 2.8852295483231853E10 ; 0.0
33 ; 4.391838756107549E7 ; 1.2061304869580297E9 ; 1.3796644103103242E9 ; 3.0058392898362473E10 ; 0.0
34 ; 4.3958569841575995E7 ; 1.2061647411336026E9 ; 1.4235827978713996E9 ; 3.1264523385320503E10 ; 0.0
35 ; 4.399842763045216E7 ; 1.2062001474670384E9 ; 1.4675413677129757E9 ; 3.2470688126454105E10 ; 0.0
36 ; 4.403508157817407E7 ; 1.2062366757111158E9 ; 1.511539795343428E9 ; 3.3676888273921143E10 ; 0.0
37 ; 4.4075773891343005E7 ; 1.2062742956410077E9 ; 1.555574876921602E9 ; 3.4883124949632256E10 ; 0.0
38 ; 4.4115123004357636E7 ; 1.2063129771277082E9 ; 1.5996506508129451E9 ; 3.608939924527326E10 ; 0.0
39 ; 4.415125368065644E7 ; 1.2063526902055407E9 ; 1.6437657738173027E9 ; 3.729571222240097E10 ; 0.0
40 ; 4.417825192021507E7 ; 1.2063934051337783E9 ; 1.6879170274979591E9 ; 3.8502064912606514E10 ; 0.0
41 ; 4.4221792359545216E7 ; 1.2064350924524791E9 ; 1.7320952794181743E9 ; 3.9708458317740295E10 ; 0.0
42 ; 4.425113184359357E7 ; 1.2064777230326722E9 ; 1.7763170717777195E9 ; 4.091489341019277E10 ; 0.0
43 ; 4.427643672137603E7 ; 1.2065212681210887E9 ; 1.820568203621313E9 ; 4.212137113322544E10 ; 0.0
44 ; 4.4305151914345965E7 ; 1.2065656993796527E9 ; 1.864844640342689E9 ; 4.332789240134653E10 ; 0.0
45 ; 4.433527091402884E7 ; 1.2066109889199853E9 ; 1.909149792257035E9 ; 4.453445810072618E10 ; 0.0
46 ; 4.4349886084421955E7 ; 1.206657109333179E9 ; 1.953485063171064E9 ; 4.5741069089646164E10 ; 0.0
47 ; 4.4373508796971224E7 ; 1.206704033715133E9 ; 1.9978349492554858E9 ; 4.694772619897934E10 ; 0.0
48 ; 4.4394087785184406E7 ; 1.2067517356877317E9 ; 2.042208458052457E9 ; 4.815443023269447E10 ; 0.0
49 ; 4.441791638397609E7 ; 1.2068001894161613E9 ; 2.0866025458376415E9 ; 4.93611819683822E10 ; 0.0
50 ; 4.442389603351909E7 ; 1.2068493696226525E9 ; 2.1310204622216175E9 ; 5.056798215779836E10 ; 0.0
51 ; 4.4445360324980654E7 ; 1.2068992515969439E9 ; 2.1754443582551365E9 ; 5.177483152742101E10 ; 0.0
52 ; 4.445854997704877E7 ; 1.2069498112037416E9 ; 2.219889718580117E9 ; 5.298173077901796E10 ; 0.0
53 ; 4.446477157897723E7 ; 1.207001024887446E9 ; 2.264348268557166E9 ; 5.41886805902217E10 ; 0.0
54 ; 4.447950036104472E7 ; 1.2070528696744146E9 ; 2.308813040136143E9 ; 5.5395681615109146E10 ; 0.0
55 ; 4.449620904151249E7 ; 1.2071053231729999E9 ; 2.353292540497188E9 ; 5.660273448478356E10 ; 0.0
56 ; 4.450792159335293E7 ; 1.2071583635716038E9 ; 2.3977887495387006E9 ; 5.780983980795656E10 ; 0.0
57 ; 4.451718084561169E7 ; 1.207211969634971E9 ; 2.4422966711320534E9 ; 5.901699817152816E10 ; 0.0
58 ; 4.452869193704166E7 ; 1.2072661206989243E9 ; 2.486813851977665E9 ; 6.022421014116313E10 ; 0.0
59 ; 4.4538854396246985E7 ; 1.2073207966637404E9 ; 2.5313425439147067E9 ; 6.143147626186205E10 ; 0.0
60 ; 4.455237804696202E7 ; 1.2073759779863393E9 ; 2.5758813983109536E9 ; 6.2638797058525795E10 ; 0.0
61 ; 4.4557257415782705E7 ; 1.20743164567146E9 ; 2.620433776357916E9 ; 6.384617303651213E10 ; 0.0
62 ; 4.457438660065446E7 ; 1.2074877812619662E9 ; 2.664991033773699E9 ; 6.505360468218359E10 ; 0.0
63 ; 4.457907497940488E7 ; 1.2075443668284283E9 ; 2.7095654203743534E9 ; 6.626109246344556E10 ; 0.0
64 ; 4.459349527164395E7 ; 1.2076013849580991E9 ; 2.7541444953537583E9 ; 6.746863683027399E10 ; 0.0
65 ; 4.459401072440327E7 ; 1.2076588187434087E9 ; 2.7987379906254025E9 ; 6.8676238215232086E10 ; 0.0
66 ; 4.460368448165429E7 ; 1.2077166517700686E9 ; 2.843332001349806E9 ; 6.98838970339755E10 ; 0.0
67 ; 4.461070432411471E7 ; 1.2077748681048913E9 ; 2.88793568583146E9 ; 7.109161368574556E10 ; 0.0
68 ; 4.4623896147637464E7 ; 1.2078334522833974E9 ; 2.932546390155575E9 ; 7.229938855385045E10 ; 0.0
69 ; 4.463149467826441E7 ; 1.2078923892972918E9 ; 2.977170286303212E9 ; 7.350722200613385E10 ; 0.0
70 ; 4.463941311859965E7 ; 1.207951664581868E9 ; 3.021801780981477E9 ; 7.471511439543114E10 ; 0.0
71 ; 4.4644373766022295E7 ; 1.208011264003407E9 ; 3.0664411941000767E9 ; 7.5923066060013E10 ; 0.0
72 ; 4.4646761565536454E7 ; 1.208071173846613E9 ; 3.111085567866099E9 ; 7.71310773240164E10 ; 0.0
73 ; 4.465572297312377E7 ; 1.208131380802132E9 ; 3.1557323294316354E9 ; 7.833914849786302E10 ; 0.0
74 ; 4.466206041792774E7 ; 1.2081918719542005E9 ; 3.200388052404759E9 ; 7.954727987866516E10 ; 0.0
75 ; 4.466031317864474E7 ; 1.2082526347684433E9 ; 3.2450501128226867E9 ; 8.075547175061935E10 ; 0.0
76 ; 4.466853249908392E7 ; 1.2083136570798597E9 ; 3.2897104260013313E9 ; 8.19637243853878E10 ; 0.0
77 ; 4.467277074966819E7 ; 1.2083749270810158E9 ; 3.3343789585004153E9 ; 8.317203804246767E10 ; 0.0
78 ; 4.465708208547012E7 ; 1.2084364333104672E9 ; 3.3790517292500834E9 ; 8.438041296954868E10 ; 0.0
79 ; 4.464979483436045E7 ; 1.208498164641425E9 ; 3.4237088113355536E9 ; 8.558884940285915E10 ; 0.0
80 ; 4.4645136750203915E7 ; 1.208560110270678E9 ; 3.4683586061699142E9 ; 8.679734756750056E10 ; 0.0
81 ; 4.463235310092078E7 ; 1.2086222597077875E9 ; 3.5130037429201183E9 ; 8.800590767777124E10 ; 0.0
82 ; 4.462485924034416E7 ; 1.208684602764552E9 ; 3.557636096021039E9 ; 8.921452993747903E10 ; 0.0
83 ; 4.461004580950935E7 ; 1.20874712954476E9 ; 3.602260955261383E9 ; 9.042321454024359E10 ; 0.0
84 ; 4.459712839483133E7 ; 1.2088098304342206E9 ; 3.6468710010708923E9 ; 9.163196166978835E10 ; 0.0
85 ; 4.458212664299826E7 ; 1.2088726960910907E9 ; 3.6914681294657235E9 ; 9.284077150022256E10 ; 0.0
86 ; 4.45744240730113E7 ; 1.2089357174364817E9 ; 3.7360502561087217E9 ; 9.404964419631366E10 ; 0.0
87 ; 4.456262307094512E7 ; 1.208998885645358E9 ; 3.780624680181733E9 ; 9.525857991375014E10 ; 0.0
88 ; 4.455121638485222E7 ; 1.2090621921377215E9 ; 3.8251873032526784E9 ; 9.64675787993955E10 ; 0.0
89 ; 4.453752260847314E7 ; 1.2091256285700727E9 ; 3.869738519637531E9 ; 9.767664099153322E10 ; 0.0
90 ; 4.452568661531083E7 ; 1.2091891868271585E9 ; 3.914276042246004E9 ; 9.888576662010329E10 ; 0.0
91 ; 4.451131567493791E7 ; 1.2092528590139885E9 ; 3.958801728861315E9 ; 1.0009495580693045E11 ; 0.0
92 ; 4.449132625563216E7 ; 1.2093166374481225E9 ; 4.0033130445362525E9 ; 1.0130420866594444E11 ; 0.0
93 ; 4.447839274914506E7 ; 1.2093805146522236E9 ; 4.0478043707918844E9 ; 1.0251352530339256E11 ; 0.0
94 ; 4.445542596389408E7 ; 1.2094444833468666E9 ; 4.0922827635410295E9 ; 1.0372290581804478E11 ; 0.0
95 ; 4.4441734356293045E7 ; 1.2095085364436016E9 ; 4.1367381895049233E9 ; 1.0493235030139165E11 ; 0.0
96 ; 4.4434286439132996E7 ; 1.209572667038259E9 ; 4.1811799238612165E9 ; 1.0614185883783525E11 ; 0.0
97 ; 4.441520871010507E7 ; 1.2096368684045002E9 ; 4.2256142103003497E9 ; 1.073514315048735E11 ; 0.0
98 ; 4.4389332634358525E7 ; 1.2097011339875934E9 ; 4.2700294190104547E9 ; 1.08561068373278E11 ; 0.0
99 ; 4.437364319752027E7 ; 1.209765457398421E9 ; 4.314418751644814E9 ; 1.097707695072656E11 ; 0.0
100 ; 4.435392629740932E7 ; 1.2098298324077024E9 ; 4.358792394842334E9 ; 1.1098053496466402E11 ; 0.0
101 ; 4.4330811484756455E7 ; 1.2098942529404316E9 ; 4.403146321139743E9 ; 1.1219036479707172E11 ; 0.0
102 ; 4.432183711748368E7 ; 1.2099587130705178E9 ; 4.447477132624499E9 ; 1.1340025905001215E11 ; 0.0
103 ; 4.429905704594983E7 ; 1.210023207015626E9 ; 4.491798969741983E9 ; 1.1461021776308266E11 ; 0.0
104 ; 4.4281258675246805E7 ; 1.2100877291322107E9 ; 4.536098026787933E9 ; 1.1582024097009828E11 ; 0.0
105 ; 4.426725906638898E7 ; 1.2101522739107335E9 ; 4.580379285463181E9 ; 1.170303286992305E11 ; 0.0
106 ; 4.424169159808145E7 ; 1.2102168359710593E9 ; 4.62464654452957E9 ; 1.1824048097314124E11 ; 0.0
107 ; 4.422194573918659E7 ; 1.2102814100580297E9 ; 4.668888236127651E9 ; 1.1945069780911229E11 ; 0.0
108 ; 4.420230578827467E7 ; 1.2103459910371962E9 ; 4.7131101818668375E9 ; 1.2066097921917032E11 ; 0.0
109 ; 4.4178927191758744E7 ; 1.210410573890722E9 ; 4.757312487655112E9 ; 1.2187132521020752E11 ; 0.0
110 ; 4.415460603643189E7 ; 1.210475153713432E9 ; 4.801491414846871E9 ; 1.2308173578409824E11 ; 0.0
111 ; 4.413317801471892E7 ; 1.2105397257090163E9 ; 4.845646020883304E9 ; 1.2429221093781166E11 ; 0.0
112 ; 4.410513479058279E7 ; 1.2106042851863751E9 ; 4.889779198898023E9 ; 1.2550275066352068E11 ; 0.0
113 ; 4.4083573422678344E7 ; 1.2106688275561032E9 ; 4.933884333688605E9 ; 1.2671335494870705E11 ; 0.0
114 ; 4.40700781051517E7 ; 1.2107333483271077E9 ; 4.977967907111283E9 ; 1.2792402377626315E11 ; 0.0
115 ; 4.403806835415773E7 ; 1.2107978431033523E9 ; 5.022037985216435E9 ; 1.2913475712459026E11 ; 0.0
116 ; 4.40116449366735E7 ; 1.2108623075807257E9 ; 5.066076053570593E9 ; 1.303455549676936E11 ; 0.0
117 ; 4.3987038717862874E7 ; 1.2109267375440297E9 ; 5.110087698507266E9 ; 1.3155641727527432E11 ; 0.0
118 ; 4.3963503841615446E7 ; 1.210991128864079E9 ; 5.154074737225129E9 ; 1.3276734401281836E11 ; 0.0
119 ; 4.393827895954643E7 ; 1.2110554774949114E9 ; 5.198038241066745E9 ; 1.3397833514168243E11 ; 0.0
120 ; 4.3913918901664115E7 ; 1.2111197794711041E9 ; 5.241976520026291E9 ; 1.3518939061917735E11 ; 0.0
121 ; 4.388689211437541E7 ; 1.2111840309051914E9 ; 5.285890438927955E9 ; 1.3640051039864845E11 ; 0.0
122 ; 4.3858772295017526E7 ; 1.2112482279851756E9 ; 5.32977733104233E9 ; 1.3761169442955365E11 ; 0.0
123 ; 4.383608954755095E7 ; 1.2113123669721375E9 ; 5.373636103337347E9 ; 1.3882294265753882E11 ; 0.0
124 ; 4.380517052580726E7 ; 1.2113764441979332E9 ; 5.417472192884898E9 ; 1.4003425502451096E11 ; 0.0
125 ; 4.37785271787288E7 ; 1.2114404560629764E9 ; 5.461277363410706E9 ; 1.412456314687089E11 ; 0.0
126 ; 4.3750705939092666E7 ; 1.2115043990341055E9 ; 5.505055890589435E9 ; 1.4245707192477188E11 ; 0.0
127 ; 4.371669072796658E7 ; 1.21156826964253E9 ; 5.548806596528527E9 ; 1.43668576323806E11 ; 0.0
128 ; 4.36931600180735E7 ; 1.2116320644818525E9 ; 5.592523287256494E9 ; 1.4488014459344852E11 ; 0.0
129 ; 4.365304347560015E7 ; 1.2116957802061658E9 ; 5.636216447274567E9 ; 1.4609177665793036E11 ; 0.0
130 ; 4.362196573297607E7 ; 1.2117594135282173E9 ; 5.679869490750167E9 ; 1.4730347243813654E11 ; 0.0
131 ; 4.357943606106345E7 ; 1.2118229612176468E9 ; 5.723491456483143E9 ; 1.4851523185166476E11 ; 0.0
132 ; 4.353640533796007E7 ; 1.2118864200992825E9 ; 5.767070892544207E9 ; 1.4972705481288242E11 ; 0.0
133 ; 4.349839446748156E7 ; 1.211949787051507E9 ; 5.810607297882167E9 ; 1.509389412329817E11 ; 0.0
134 ; 4.345375690705727E7 ; 1.2120130590046763E9 ; 5.854105692349648E9 ; 1.521508910200332E11 ; 0.0
135 ; 4.339946365411055E7 ; 1.2120762329396029E9 ; 5.897559449256705E9 ; 1.5336290407903787E11 ; 0.0
136 ; 4.335926094535138E7 ; 1.2121393058860893E9 ; 5.940958912910816E9 ; 1.5457498031197748E11 ; 0.0
137 ; 4.331438954229768E7 ; 1.2122022749215188E9 ; 5.984318173856168E9 ; 1.5578711961786356E11 ; 0.0
138 ; 4.3272551784749344E7 ; 1.2122651371694953E9 ; 6.027632563398465E9 ; 1.5699932189278506E11 ; 0.0
139 ; 4.321610148571972E7 ; 1.2123278897985327E9 ; 6.070905115183214E9 ; 1.5821158702995456E11 ; 0.0
140 ; 4.316951562597941E7 ; 1.2123905300207925E9 ; 6.114121216668934E9 ; 1.5942391491975308E11 ; 0.0
141 ; 4.312406673040691E7 ; 1.2124530550908654E9 ; 6.157290732294913E9 ; 1.6063630544977386E11 ; 0.0
142 ; 4.307251426747771E7 ; 1.2125154623045995E9 ; 6.20041479902532E9 ; 1.6184875850486472E11 ; 0.0
143 ; 4.3024301522364E7 ; 1.2125777489979663E9 ; 6.243487313292798E9 ; 1.630612739671693E11 ; 0.0
144 ; 4.2972638695375435E7 ; 1.2126399125459726E9 ; 6.286511614815162E9 ; 1.6427385171616727E11 ; 0.0
145 ; 4.295064835697543E7 ; 1.2127019503616042E9 ; 6.329484253510537E9 ; 1.6548649162871323E11 ; 0.0
146 ; 4.291671996030116E7 ; 1.212763859894815E9 ; 6.372434901867513E9 ; 1.6669919357907483E11 ; 0.0
147 ; 4.288189228576104E7 ; 1.2128256386315455E9 ; 6.415351621827814E9 ; 1.6791195743896964E11 ; 0.0
148 ; 4.285537026309106E7 ; 1.2128872840927792E9 ; 6.458233514113575E9 ; 1.6912478307760117E11 ; 0.0
149 ; 4.281991741551083E7 ; 1.212948793833631E9 ; 6.501088884376666E9 ; 1.7033767036169394E11 ; 0.0
150 ; 4.278797967932128E7 ; 1.2130101654424698E9 ; 6.543908801792177E9 ; 1.7155061915552756E11 ; 0.0
151 ; 4.275850055780881E7 ; 1.2130713965400672E9 ; 6.5866967814714985E9 ; 1.7276362932097003E11 ; 0.0
152 ; 4.27247305925096E7 ; 1.2131324847787812E9 ; 6.629455282029307E9 ; 1.739767007175101E11 ; 0.0
153 ; 4.269449988460401E7 ; 1.213193427841765E9 ; 6.672180012621817E9 ; 1.7518983320228888E11 ; 0.0
154 ; 4.2661229910818495E7 ; 1.2132542234422035E9 ; 6.714874512506421E9 ; 1.7640302663013065E11 ; 0.0
155 ; 4.262034647643995E7 ; 1.213314869322578E9 ; 6.757535742417239E9 ; 1.7761628085357285E11 ; 0.0
156 ; 4.2590446234435275E7 ; 1.213375363253954E9 ; 6.800156088893679E9 ; 1.7882959572289542E11 ; 0.0
157 ; 4.25555308602131E7 ; 1.2134357030352955E9 ; 6.842746535128114E9 ; 1.8004297108614938E11 ; 0.0
158 ; 4.2524700678820714E7 ; 1.2134958864928E9 ; 6.885302065988327E9 ; 1.812564067891847E11 ; 0.0
159 ; 4.248558860192376E7 ; 1.213555911479261E9 ; 6.927826766667148E9 ; 1.824699026756775E11 ; 0.0
160 ; 4.244994214950351E7 ; 1.2136157758734462E9 ; 6.970312355269072E9 ; 1.8368345858715674E11 ; 0.0
161 ; 4.242047414718911E7 ; 1.2136754775795019E9 ; 7.012762297418575E9 ; 1.8489707436303018E11 ; 0.0
162 ; 4.238295931725698E7 ; 1.2137350145263746E9 ; 7.055182771565764E9 ; 1.8611074984060968E11 ; 0.0
163 ; 4.2342061881925024E7 ; 1.213794384667253E9 ; 7.097565730883021E9 ; 1.8732448485513605E11 ; 0.0
164 ; 4.2317204166539244E7 ; 1.21385358597903E9 ; 7.139907792764946E9 ; 1.885382792398033E11 ; 0.0
165 ; 4.2278743949443795E7 ; 1.2139126164617796E9 ; 7.182224996931485E9 ; 1.8975213282578235E11 ; 0.0
166 ; 4.224463841603391E7 ; 1.2139714741382551E9 ; 7.224503740880929E9 ; 1.9096604544224414E11 ; 0.0
167 ; 4.2211937912069455E7 ; 1.2140301570534017E9 ; 7.266748379296963E9 ; 1.921800169163824E11 ; 0.0
168 ; 4.21712152096439E7 ; 1.2140886632738848E9 ; 7.308960317209032E9 ; 1.933940470734358E11 ; 0.0
169 ; 4.213434260625889E7 ; 1.214146990887637E9 ; 7.351131532418676E9 ; 1.946081357367097E11 ; 0.0
170 ; 4.210446194695095E7 ; 1.214205138003416E9 ; 7.393265875024936E9 ; 1.9582228272759732E11 ; 0.0
171 ; 4.206896624815997E7 ; 1.214263102750381E9 ; 7.435370336971887E9 ; 1.9703648786560074E11 ; 0.0
172 ; 4.2031646894086815E7 ; 1.2143208832776794E9 ; 7.477439303220047E9 ; 1.982507509683511E11 ; 0.0
173 ; 4.199707745809287E7 ; 1.2143784777540514E9 ; 7.519470950114134E9 ; 1.9946507185162878E11 ; 0.0
174 ; 4.1980327103415295E7 ; 1.2144358843674417E9 ; 7.561468027572227E9 ; 2.0067945032938284E11 ; 0.0
175 ; 4.195092273152982E7 ; 1.2144931013246298E9 ; 7.603448354675642E9 ; 2.0189388621375027E11 ; 0.0
176 ; 4.193283125956202E7 ; 1.2145501268508687E9 ; 7.645399277407172E9 ; 2.031083793150749E11 ; 0.0
177 ; 4.190604439078717E7 ; 1.2146069591895366E9 ; 7.687332108666735E9 ; 2.0432292944192575E11 ; 0.0
178 ; 4.188470584594786E7 ; 1.214663596601799E9 ; 7.729238153057522E9 ; 2.055375364011153E11 ; 0.0
179 ; 4.1857580202249855E7 ; 1.214720037366283E9 ; 7.77112285890347E9 ; 2.067521999977171E11 ; 0.0
180 ; 4.185421375537162E7 ; 1.2147762797787616E9 ; 7.81298043910572E9 ; 2.0796692003508337E11 ; 0.0
181 ; 4.182138508275084E7 ; 1.2148323221518471E9 ; 7.854834652861092E9 ; 2.0918169631486212E11 ; 0.0
182 ; 4.179590486776346E7 ; 1.2148881628146954E9 ; 7.896656037943843E9 ; 2.1039652863701398E11 ; 0.0
183 ; 4.1770357528324515E7 ; 1.2149438001127205E9 ; 7.938451942811606E9 ; 2.1161141679982867E11 ; 0.0
184 ; 4.175707353797132E7 ; 1.2149992324073157E9 ; 7.980222300339931E9 ; 2.128263605999414E11 ; 0.0
185 ; 4.173116847268914E7 ; 1.2150544580755863E9 ; 8.021979373877902E9 ; 2.1404135983234872E11 ; 0.0
186 ; 4.1703854989446305E7 ; 1.2151094755100884E9 ; 8.063710542350591E9 ; 2.1525641429042432E11 ; 0.0
187 ; 4.168272735183678E7 ; 1.2151642831185787E9 ; 8.105414397340037E9 ; 2.1647152376593442E11 ; 0.0
188 ; 4.1660766188991204E7 ; 1.215218879323769E9 ; 8.1470971246918745E9 ; 2.17686688049053E11 ; 0.0
189 ; 4.1640652479358636E7 ; 1.2152732625630918E9 ; 8.188757890880866E9 ; 2.1890190692837677E11 ; 0.0
190 ; 4.161612126466073E7 ; 1.2153274312884703E9 ; 8.230398543360225E9 ; 2.2011718019093985E11 ; 0.0
191 ; 4.159947885372855E7 ; 1.2153813839660969E9 ; 8.272014664624886E9 ; 2.2133250762222833E11 ; 0.0
192 ; 4.157986034252288E7 ; 1.2154351190762196E9 ; 8.313614143478614E9 ; 2.2254788900619443E11 ; 0.0
193 ; 4.155086032811412E7 ; 1.2154886351129336E9 ; 8.355194003821136E9 ; 2.2376332412527066E11 ; 0.0
194 ; 4.152956988462834E7 ; 1.2155419305839798E9 ; 8.396744864149251E9 ; 2.249788127603836E11 ; 0.0
195 ; 4.151202879912778E7 ; 1.2155950040105503E9 ; 8.438274434033879E9 ; 2.261943546909676E11 ; 0.0
196 ; 4.1484978516975634E7 ; 1.2156478539270976E9 ; 8.479786462833007E9 ; 2.2740994969497815E11 ; 0.0
