CSV File for the Network on Day 99
1 - Minute m 
2 - Power Consumed at minute m 
3 - Power Produced at minute m 
4 - Energy Consumed since the beginning of the day 
5 - Energy Produced since the beginning of the day 
6 - Energy Lost since the beginning of the day 
 
0 ; 3.8746191053448185E7 ; 6.352073978207806E8 ; 0.0 ; 0.0 ; 0.0
1 ; 3.878856118114747E7 ; 6.361182785858326E8 ; 3.8746191053448185E7 ; 6.352073978207806E8 ; 0.0
2 ; 3.882994813792578E7 ; 6.388825462453852E8 ; 7.753475223459566E7 ; 1.2713256764066133E9 ; 0.0
3 ; 3.887606302672494E7 ; 6.435002166503122E8 ; 1.1636470037252143E8 ; 1.9102082226519985E9 ; 0.0
4 ; 3.893771654816039E7 ; 6.499713039997122E8 ; 1.5524076339924636E8 ; 2.553708439302311E9 ; 0.0
5 ; 3.900023922453425E7 ; 6.582958207643081E8 ; 1.9417847994740677E8 ; 3.203679743302023E9 ; 0.0
6 ; 3.910310760257015E7 ; 6.684737776179175E8 ; 2.33178719171941E8 ; 3.861975564066331E9 ; 0.0
7 ; 3.922856923379171E7 ; 6.80505183377867E8 ; 2.7228182677451116E8 ; 4.530449341684248E9 ; 0.0
8 ; 3.9410977199760176E7 ; 6.943900449551154E8 ; 3.1151039600830287E8 ; 5.210954525062115E9 ; 0.0
9 ; 3.9696266812452056E7 ; 7.101283673147488E8 ; 3.5092137320806307E8 ; 5.90534457001723E9 ; 0.0
10 ; 4.013008284822243E7 ; 7.277201534473718E8 ; 3.9061764002051514E8 ; 6.615472937331979E9 ; 0.0
11 ; 4.081746347232683E7 ; 7.47165404351786E8 ; 4.307477228687376E8 ; 7.34319309077935E9 ; 0.0
12 ; 4.1923123600289226E7 ; 7.684641190291895E8 ; 4.715651863410644E8 ; 8.090358495131136E9 ; 0.0
13 ; 4.299253168132565E7 ; 7.916162944889779E8 ; 5.134883099413536E8 ; 8.858822614160326E9 ; 0.0
14 ; 4.3117086176713735E7 ; 8.166219257660656E8 ; 5.564808416226792E8 ; 9.650438908649303E9 ; 0.0
15 ; 4.3166676341066554E7 ; 8.434810059494932E8 ; 5.995979277993929E8 ; 1.0467060834415369E10 ; 0.0
16 ; 4.321966223095611E7 ; 8.721935262219344E8 ; 6.427646041404595E8 ; 1.1310541840364862E10 ; 0.0
17 ; 4.326973547150951E7 ; 9.027594759095714E8 ; 6.859842663714156E8 ; 1.2182735366586798E10 ; 0.0
18 ; 4.332289230575551E7 ; 9.351788425416814E8 ; 7.292540018429251E8 ; 1.3085494842496368E10 ; 0.0
19 ; 4.3372847223837554E7 ; 9.69451611919166E8 ; 7.725768941486806E8 ; 1.402067368503805E10 ; 0.0
20 ; 4.342557746255126E7 ; 1.0055777681911508E9 ; 8.159497413725181E8 ; 1.4990125296957216E10 ; 0.0
21 ; 4.347166153434578E7 ; 1.0435572939387188E9 ; 8.593753188350693E8 ; 1.5995703065148367E10 ; 0.0
22 ; 4.352945026756042E7 ; 1.0833901702647688E9 ; 9.02846980369415E8 ; 1.7039260359087086E10 ; 0.0
23 ; 4.358308485320207E7 ; 1.1250763768889701E9 ; 9.463764306369755E8 ; 1.8122650529351856E10 ; 0.0
24 ; 4.3632712945327915E7 ; 1.168615892246756E9 ; 9.899595154901776E8 ; 1.9247726906240826E10 ; 0.0
25 ; 4.369070636948405E7 ; 1.2061369389804127E9 ; 1.0335922284355055E9 ; 2.0416342798487583E10 ; 0.0
26 ; 4.3732487226077035E7 ; 1.2061607802644064E9 ; 1.0772829348049896E9 ; 2.1622479737467995E10 ; 0.0
27 ; 4.378183407647957E7 ; 1.2061860070597305E9 ; 1.1210154220310667E9 ; 2.2828640517732403E10 ; 0.0
28 ; 4.383918112999183E7 ; 1.2062125936995056E9 ; 1.1647972561075463E9 ; 2.4034826524792133E10 ; 0.0
29 ; 4.3887226770717315E7 ; 1.2062405137525806E9 ; 1.208636437237538E9 ; 2.524103911849164E10 ; 0.0
30 ; 4.393520798199075E7 ; 1.2062697401260226E9 ; 1.2525236640082555E9 ; 2.6447279632244217E10 ; 0.0
31 ; 4.3982323379167944E7 ; 1.2063002451652443E9 ; 1.2964588719902463E9 ; 2.765354937237024E10 ; 0.0
32 ; 4.402888352750316E7 ; 1.206332000751134E9 ; 1.3404411953694143E9 ; 2.8859849617535484E10 ; 0.0
33 ; 4.406635980589951E7 ; 1.206364978393631E9 ; 1.3844700788969176E9 ; 3.0066181618286617E10 ; 0.0
34 ; 4.411414117768979E7 ; 1.2063991493212876E9 ; 1.4285364387028172E9 ; 3.127254659668025E10 ; 0.0
35 ; 4.416300088499436E7 ; 1.2064344845664306E9 ; 1.472650579880507E9 ; 3.2478945746001537E10 ; 0.0
36 ; 4.420359445551587E7 ; 1.2064709550456347E9 ; 1.5168135807655013E9 ; 3.3685380230567966E10 ; 0.0
37 ; 4.424664469235167E7 ; 1.2065085316352804E9 ; 1.5610171752210171E9 ; 3.48918511856136E10 ; 0.0
38 ; 4.42795697904135E7 ; 1.2065471852420576E9 ; 1.6052638199133687E9 ; 3.609835971724888E10 ; 0.0
39 ; 4.431534309075763E7 ; 1.2065868868683312E9 ; 1.649543389703782E9 ; 3.730490690249094E10 ; 0.0
40 ; 4.435159327757492E7 ; 1.2066276076723561E9 ; 1.6938587327945397E9 ; 3.851149378935927E10 ; 0.0
41 ; 4.4391374182535894E7 ; 1.2066693190233727E9 ; 1.7382103260721147E9 ; 3.9718121397031624E10 ; 0.0
42 ; 4.441806207395369E7 ; 1.20671199255167E9 ; 1.7826017002546506E9 ; 4.092479071605499E10 ; 0.0
43 ; 4.44527745699202E7 ; 1.2067556001937385E9 ; 1.8270197623286042E9 ; 4.213150270860666E10 ; 0.0
44 ; 4.447861719282618E7 ; 1.2068001142326689E9 ; 1.8714725368985245E9 ; 4.33382583088004E10 ; 0.0
45 ; 4.449744976369346E7 ; 1.2068455073339849E9 ; 1.9159511540913508E9 ; 4.4545058423033066E10 ; 0.0
46 ; 4.452693581455761E7 ; 1.2068917525771132E9 ; 1.9604486038550444E9 ; 4.575190393036705E10 ; 0.0
47 ; 4.4552252543583095E7 ; 1.2069388234827175E9 ; 2.004975539669602E9 ; 4.695879568294416E10 ; 0.0
48 ; 4.457052538469325E7 ; 1.2069866940361295E9 ; 2.049527792213185E9 ; 4.816573450642688E10 ; 0.0
49 ; 4.458987491105373E7 ; 1.2070353387071185E9 ; 2.0940983175978782E9 ; 4.937272120046301E10 ; 0.0
50 ; 4.4612074000312164E7 ; 1.2070847324662473E9 ; 2.1386881925089319E9 ; 5.057975653917013E10 ; 0.0
51 ; 4.4623157767848074E7 ; 1.2071348507980607E9 ; 2.183300266509244E9 ; 5.1786841271636375E10 ; 0.0
52 ; 4.463954293251063E7 ; 1.2071856697113469E9 ; 2.227923424277092E9 ; 5.299397612243443E10 ; 0.0
53 ; 4.465136343675034E7 ; 1.207237165746713E9 ; 2.272562967209603E9 ; 5.420116179214578E10 ; 0.0
54 ; 4.466927425111993E7 ; 1.2072893159817073E9 ; 2.3172143306463532E9 ; 5.5408398957892494E10 ; 0.0
55 ; 4.4684518639866054E7 ; 1.2073420980337071E9 ; 2.3618836048974733E9 ; 5.66156882738742E10 ; 0.0
56 ; 4.469274521325947E7 ; 1.2073954900607905E9 ; 2.406568123537339E9 ; 5.7823030371907906E10 ; 0.0
57 ; 4.47114889720912E7 ; 1.2074494707607923E9 ; 2.451260868750599E9 ; 5.90304258619687E10 ; 0.0
58 ; 4.4725799755712934E7 ; 1.2075040193687353E9 ; 2.49597235772269E9 ; 6.023787533272949E10 ; 0.0
59 ; 4.47377108244113E7 ; 1.2075591156528242E9 ; 2.540698157478403E9 ; 6.144537935209823E10 ; 0.0
60 ; 4.4748713800572194E7 ; 1.2076147399091585E9 ; 2.5854358683028145E9 ; 6.265293846775105E10 ; 0.0
61 ; 4.476557008481095E7 ; 1.2076708729553366E9 ; 2.630184582103387E9 ; 6.386055320766021E10 ; 0.0
62 ; 4.4776956637499504E7 ; 1.207727496123083E9 ; 2.6749501521881976E9 ; 6.506822408061555E10 ; 0.0
63 ; 4.478489890567069E7 ; 1.2077845912500448E9 ; 2.719727108825697E9 ; 6.627595157673863E10 ; 0.0
64 ; 4.479561700878399E7 ; 1.2078421406708732E9 ; 2.7645120077313676E9 ; 6.748373616798868E10 ; 0.0
65 ; 4.479896088216418E7 ; 1.2079001272077053E9 ; 2.8093076247401514E9 ; 6.869157830865955E10 ; 0.0
66 ; 4.481436691959639E7 ; 1.2079585341601546E9 ; 2.8541065856223154E9 ; 6.989947843586726E10 ; 0.0
67 ; 4.4815753830290675E7 ; 1.2080173452948933E9 ; 2.8989209525419116E9 ; 7.110743697002742E10 ; 0.0
68 ; 4.482890903205638E7 ; 1.2080765448349247E9 ; 2.9437367063722024E9 ; 7.231545431532231E10 ; 0.0
69 ; 4.4834267257895485E7 ; 1.2081361174486094E9 ; 2.9885656154042587E9 ; 7.352353086015724E10 ; 0.0
70 ; 4.484553137387691E7 ; 1.2081960482385225E9 ; 3.033399882662154E9 ; 7.473166697760585E10 ; 0.0
71 ; 4.485245874614739E7 ; 1.2082563227302008E9 ; 3.0782454140360312E9 ; 7.593986302584438E10 ; 0.0
72 ; 4.4856637898009434E7 ; 1.208316926860833E9 ; 3.1230978727821784E9 ; 7.714811934857457E10 ; 0.0
73 ; 4.485386054337163E7 ; 1.208377846967943E9 ; 3.1679545106801877E9 ; 7.835643627543541E10 ; 0.0
74 ; 4.4872672853748366E7 ; 1.2084390697781076E9 ; 3.2128083712235594E9 ; 7.956481412240335E10 ; 0.0
75 ; 4.488596247358087E7 ; 1.208500582395749E9 ; 3.2576810440773077E9 ; 8.077325319218146E10 ; 0.0
76 ; 4.488579990451537E7 ; 1.2085623722920296E9 ; 3.3025670065508885E9 ; 8.198175377457721E10 ; 0.0
77 ; 4.488434203269404E7 ; 1.2086244272938814E9 ; 3.347452806455404E9 ; 8.319031614686923E10 ; 0.0
78 ; 4.488735978080075E7 ; 1.208686735573193E9 ; 3.3923371484880977E9 ; 8.439894057416312E10 ; 0.0
79 ; 4.487493378724108E7 ; 1.208749285636175E9 ; 3.4372245082688985E9 ; 8.560762730973631E10 ; 0.0
80 ; 4.48663800008503E7 ; 1.2088120663129175E9 ; 3.4820994420561395E9 ; 8.681637659537248E10 ; 0.0
81 ; 4.485978956568866E7 ; 1.2088750667471619E9 ; 3.5269658220569897E9 ; 8.80251886616854E10 ; 0.0
82 ; 4.485303204699464E7 ; 1.208938276386289E9 ; 3.5718256116226783E9 ; 8.923406372843256E10 ; 0.0
83 ; 4.483135234045611E7 ; 1.2090016849715421E9 ; 3.616678643669673E9 ; 9.044300200481885E10 ; 0.0
84 ; 4.48235714357965E7 ; 1.2090652825284855E9 ; 3.661509996010129E9 ; 9.165200368979039E10 ; 0.0
85 ; 4.4817126546842374E7 ; 1.2091290593577058E9 ; 3.7063335674459257E9 ; 9.286106897231888E10 ; 0.0
86 ; 4.480879424068773E7 ; 1.2091930060257611E9 ; 3.7511506939927683E9 ; 9.407019803167659E10 ; 0.0
87 ; 4.4799293299764946E7 ; 1.20925711335638E9 ; 3.795959488233456E9 ; 9.527939103770235E10 ; 0.0
88 ; 4.47822239278087E7 ; 1.2093213724219093E9 ; 3.8407587815332212E9 ; 9.648864815105873E10 ; 0.0
89 ; 4.47797425379673E7 ; 1.2093857745350122E9 ; 3.88554100546103E9 ; 9.769796952348064E10 ; 0.0
90 ; 4.4767069808743276E7 ; 1.2094503112406163E9 ; 3.930320747998997E9 ; 9.890735529801566E10 ; 0.0
91 ; 4.474906053677874E7 ; 1.209514974308106E9 ; 3.9750878178077407E9 ; 1.0011680560925627E11 ; 0.0
92 ; 4.472894960291038E7 ; 1.2095797557237625E9 ; 4.0198368783445196E9 ; 1.0132632058356438E11 ; 0.0
93 ; 4.472518087952348E7 ; 1.2096446476834416E9 ; 4.06456582794743E9 ; 1.0253590033928815E11 ; 0.0
94 ; 4.470614754599789E7 ; 1.2097096425854897E9 ; 4.1092910088269534E9 ; 1.0374554498697159E11 ; 0.0
95 ; 4.469479857938748E7 ; 1.2097747330238936E9 ; 4.1539971563729515E9 ; 1.0495525462955708E11 ; 0.0
96 ; 4.467514899416339E7 ; 1.2098399117816546E9 ; 4.198691954952339E9 ; 1.0616502936258098E11 ; 0.0
97 ; 4.465635667516088E7 ; 1.2099051718243911E9 ; 4.2433671039465027E9 ; 1.0737486927436264E11 ; 0.0
98 ; 4.4644471634210415E7 ; 1.2099705062941535E9 ; 4.2880234606216636E9 ; 1.0858477444618703E11 ; 0.0
99 ; 4.4625725433516435E7 ; 1.2100359085034552E9 ; 4.332667932255874E9 ; 1.0979474495248119E11 ; 0.0
100 ; 4.4615678520408235E7 ; 1.21010137192951E9 ; 4.37729365768939E9 ; 1.1100478086098463E11 ; 0.0
101 ; 4.4605247922099896E7 ; 1.2101668902086692E9 ; 4.421909336209799E9 ; 1.1221488223291414E11 ; 0.0
102 ; 4.458270734856157E7 ; 1.2102324571310546E9 ; 4.466514584131899E9 ; 1.134250491231228E11 ; 0.0
103 ; 4.456776886496271E7 ; 1.210298066635384E9 ; 4.51109729148046E9 ; 1.1463528158025386E11 ; 0.0
104 ; 4.454794103285428E7 ; 1.2103637128039784E9 ; 4.555665060345423E9 ; 1.1584557964688925E11 ; 0.0
105 ; 4.453622757304452E7 ; 1.2104293898579469E9 ; 4.600213001378277E9 ; 1.1705594335969324E11 ; 0.0
106 ; 4.4512982942453995E7 ; 1.210495092152548E9 ; 4.644749228951322E9 ; 1.1826637274955118E11 ; 0.0
107 ; 4.449436162378529E7 ; 1.2105608141727152E9 ; 4.689262211893776E9 ; 1.1947686784170372E11 ; 0.0
108 ; 4.447266754959987E7 ; 1.2106265505287457E9 ; 4.733756573517561E9 ; 1.2068742865587643E11 ; 0.0
109 ; 4.4455499596947305E7 ; 1.2106922959521456E9 ; 4.778229241067161E9 ; 1.2189805520640518E11 ; 0.0
110 ; 4.4432258951943554E7 ; 1.2107580452916257E9 ; 4.822684740664108E9 ; 1.2310874750235733E11 ; 0.0
111 ; 4.441408440977358E7 ; 1.2108237935092432E9 ; 4.867116999616052E9 ; 1.2431950554764896E11 ; 0.0
112 ; 4.438589831224798E7 ; 1.210889535676686E9 ; 4.9115310840258255E9 ; 1.255303293411582E11 ; 0.0
113 ; 4.437260196051333E7 ; 1.2109552669716907E9 ; 4.955916982338074E9 ; 1.2674121887683488E11 ; 0.0
114 ; 4.434663696421543E7 ; 1.211020982674592E9 ; 5.000289584298587E9 ; 1.2795217414380658E11 ; 0.0
115 ; 4.431908925011806E7 ; 1.211086678165001E9 ; 5.044636221262802E9 ; 1.2916319512648117E11 ; 0.0
116 ; 4.430131938340699E7 ; 1.211152348918601E9 ; 5.08895531051292E9 ; 1.3037428180464618E11 ; 0.0
117 ; 4.428269984799373E7 ; 1.2112179905040667E9 ; 5.133256629896327E9 ; 1.3158543415356477E11 ; 0.0
118 ; 4.4256359756008E7 ; 1.21128359858009E9 ; 5.177539329744321E9 ; 1.3279665214406885E11 ; 0.0
119 ; 4.423552640816255E7 ; 1.2113491688925195E9 ; 5.221795689500329E9 ; 1.3400793574264894E11 ; 0.0
120 ; 4.42106571386052E7 ; 1.2114146972716029E9 ; 5.266031215908491E9 ; 1.3521928491154146E11 ; 0.0
121 ; 4.41858354150907E7 ; 1.211480179629331E9 ; 5.310241873047096E9 ; 1.3643069960881306E11 ; 0.0
122 ; 4.415571862597057E7 ; 1.2115456119568791E9 ; 5.354427708462187E9 ; 1.3764217978844238E11 ; 0.0
123 ; 4.413079093365472E7 ; 1.2116109903221416E9 ; 5.398583427088158E9 ; 1.3885372540039926E11 ; 0.0
124 ; 4.410766522211757E7 ; 1.2116763108673568E9 ; 5.442714218021812E9 ; 1.400653363907214E11 ; 0.0
125 ; 4.408696790883167E7 ; 1.2117415698068185E9 ; 5.48682188324393E9 ; 1.4127701270158878E11 ; 0.0
126 ; 4.405763673984262E7 ; 1.211806763424672E9 ; 5.530908851152761E9 ; 1.424887542713956E11 ; 0.0
127 ; 4.403466253958375E7 ; 1.2118718880727885E9 ; 5.574966487892604E9 ; 1.4370056103482028E11 ; 0.0
128 ; 4.4003790792773224E7 ; 1.2119369401687174E9 ; 5.619001150432188E9 ; 1.4491243292289307E11 ; 0.0
129 ; 4.3975019071639314E7 ; 1.2120019161937156E9 ; 5.663004941224961E9 ; 1.461243698630618E11 ; 0.0
130 ; 4.3944067921153896E7 ; 1.2120668126908426E9 ; 5.7069799602966E9 ; 1.4733637177925552E11 ; 0.0
131 ; 4.3900154322990835E7 ; 1.2121316262631307E9 ; 5.750924028217754E9 ; 1.4854843859194638E11 ; 0.0
132 ; 4.385952008101759E7 ; 1.2121963535718162E9 ; 5.794824182540745E9 ; 1.497605702182095E11 ; 0.0
133 ; 4.381300241265021E7 ; 1.2122609913346384E9 ; 5.838683702621762E9 ; 1.509727665717813E11 ; 0.0
134 ; 4.3776634004519396E7 ; 1.2123255363241963E9 ; 5.882496705034412E9 ; 1.5218502756311594E11 ; 0.0
135 ; 4.373054111442641E7 ; 1.2123899853663664E9 ; 5.926273339038932E9 ; 1.5339735309944012E11 ; 0.0
136 ; 4.369018623896295E7 ; 1.2124543353387766E9 ; 5.970003880153358E9 ; 1.546097430848065E11 ; 0.0
137 ; 4.364554972300248E7 ; 1.2125185831693347E9 ; 6.013694066392322E9 ; 1.5582219742014526E11 ; 0.0
138 ; 4.35935006155121E7 ; 1.2125827258348083E9 ; 6.057339616115324E9 ; 1.570347160033146E11 ; 0.0
139 ; 4.3557486062822275E7 ; 1.2126467603594573E9 ; 6.100933116730836E9 ; 1.582472987291494E11 ; 0.0
140 ; 4.351092049083717E7 ; 1.2127106838137124E9 ; 6.144490602793658E9 ; 1.5945994548950888E11 ; 0.0
141 ; 4.346458255850531E7 ; 1.2127744933129022E9 ; 6.188001523284495E9 ; 1.606726561733226E11 ; 0.0
142 ; 4.3418365046867706E7 ; 1.2128381860160246E9 ; 6.231466105843E9 ; 1.618854306666355E11 ; 0.0
143 ; 4.336887144286585E7 ; 1.2129017591245608E9 ; 6.274884470889868E9 ; 1.6309826885265152E11 ; 0.0
144 ; 4.333016668437715E7 ; 1.2129652098813317E9 ; 6.318253342332733E9 ; 1.643111706117761E11 ; 0.0
145 ; 4.3300543614528835E7 ; 1.2130285355693953E9 ; 6.36158350901711E9 ; 1.655241358216574E11 ; 0.0
146 ; 4.326793676114668E7 ; 1.2130917335109787E9 ; 6.404884052631639E9 ; 1.667371643572268E11 ; 0.0
147 ; 4.324499276970498E7 ; 1.2131548010664532E9 ; 6.448151989392785E9 ; 1.679502560907378E11 ; 0.0
148 ; 4.320965021836365E7 ; 1.213217735633339E9 ; 6.49139698216249E9 ; 1.6916341089180426E11 ; 0.0
149 ; 4.317962694802381E7 ; 1.2132805346453485E9 ; 6.534606632380854E9 ; 1.703766286274376E11 ; 0.0
150 ; 4.315071629813518E7 ; 1.2133431955714617E9 ; 6.577786259328877E9 ; 1.7158990916208295E11 ; 0.0
151 ; 4.312695682140586E7 ; 1.2134057159150314E9 ; 6.620936975627012E9 ; 1.7280325235765442E11 ; 0.0
152 ; 4.3087230180976644E7 ; 1.2134680932129216E9 ; 6.664063932448418E9 ; 1.7401665807356946E11 ; 0.0
153 ; 4.3062686941865966E7 ; 1.2135303250346751E9 ; 6.707151162629395E9 ; 1.7523012616678238E11 ; 0.0
154 ; 4.302948071456524E7 ; 1.2135924089817073E9 ; 6.75021384957126E9 ; 1.7644365649181705E11 ; 0.0
155 ; 4.3003904253651865E7 ; 1.2136543426865304E9 ; 6.793243330285826E9 ; 1.7765724890079877E11 ; 0.0
156 ; 4.296350367441723E7 ; 1.2137161238120022E9 ; 6.836247234539477E9 ; 1.788709032434853E11 ; 0.0
157 ; 4.293998705316148E7 ; 1.2137777500506005E9 ; 6.879210738213895E9 ; 1.800846193672973E11 ; 0.0
158 ; 4.290801105277087E7 ; 1.2138392191237216E9 ; 6.922150725267056E9 ; 1.812983971173479E11 ; 0.0
159 ; 4.287241530019117E7 ; 1.213900528781005E9 ; 6.965058736319827E9 ; 1.8251223633647162E11 ; 0.0
160 ; 4.2843632336107254E7 ; 1.2139616767996762E9 ; 7.007931151620018E9 ; 1.8372613686525262E11 ; 0.0
161 ; 4.281453866490892E7 ; 1.214022660983916E9 ; 7.050774783956125E9 ; 1.849400985420523E11 ; 0.0
162 ; 4.278145088313995E7 ; 1.214083479164248E9 ; 7.093589322621035E9 ; 1.8615412120303622E11 ; 0.0
163 ; 4.274550591458793E7 ; 1.2141441291969476E9 ; 7.136370773504174E9 ; 1.8736820468220047E11 ; 0.0
164 ; 4.270970870182585E7 ; 1.21420460896347E9 ; 7.179116279418762E9 ; 1.8858234881139743E11 ; 0.0
165 ; 4.268563784836402E7 ; 1.2142649163698986E9 ; 7.221825988120588E9 ; 1.897965534203609E11 ; 0.0
166 ; 4.2647594238094166E7 ; 1.2143250493464096E9 ; 7.264511625968952E9 ; 1.910108183367308E11 ; 0.0
167 ; 4.2617595668370776E7 ; 1.214385005846755E9 ; 7.3071592202070465E9 ; 1.922251433860772E11 ; 0.0
168 ; 4.2585300638181254E7 ; 1.2144447838477635E9 ; 7.349776815875418E9 ; 1.9343952839192395E11 ; 0.0
169 ; 4.2551643659905165E7 ; 1.2145043813488564E9 ; 7.392362116513599E9 ; 1.9465397317577173E11 ; 0.0
170 ; 4.252237348746345E7 ; 1.2145637963715801E9 ; 7.434913760173505E9 ; 1.9586847755712057E11 ; 0.0
171 ; 4.248008258660096E7 ; 1.2146230269591534E9 ; 7.477436133660968E9 ; 1.9708304135349216E11 ; 0.0
172 ; 4.245017274557686E7 ; 1.2146820711760304E9 ; 7.519916216247569E9 ; 1.9829766438045132E11 ; 0.0
173 ; 4.241523413163474E7 ; 1.214740927107475E9 ; 7.562366388993146E9 ; 1.9951234645162735E11 ; 0.0
174 ; 4.239710991486212E7 ; 1.2147995928591528E9 ; 7.604781623124781E9 ; 2.0072708737873483E11 ; 0.0
175 ; 4.2383880098929696E7 ; 1.214858066556734E9 ; 7.647178733039642E9 ; 2.01941886971594E11 ; 0.0
176 ; 4.2355114567408085E7 ; 1.2149163463455088E9 ; 7.689562613138572E9 ; 2.0315674503815073E11 ; 0.0
177 ; 4.233888492061889E7 ; 1.2149744303900154E9 ; 7.73191772770598E9 ; 2.0437166138449625E11 ; 0.0
178 ; 4.231774909973356E7 ; 1.2150323168736813E9 ; 7.774256612626599E9 ; 2.0558663581488626E11 ; 0.0
179 ; 4.22975441676903E7 ; 1.2150900039984744E9 ; 7.816574361726333E9 ; 2.0680166813175995E11 ; 0.0
180 ; 4.227669284120238E7 ; 1.2151474899845648E9 ; 7.858871905894023E9 ; 2.0801675813575842E11 ; 0.0
181 ; 4.225447616845785E7 ; 1.2152047730700002E9 ; 7.901148598735226E9 ; 2.0923190562574298E11 ; 0.0
182 ; 4.22289430886195E7 ; 1.215261851510388E9 ; 7.943403074903684E9 ; 2.10447110398813E11 ; 0.0
183 ; 4.221768436344193E7 ; 1.215318723578589E9 ; 7.985632017992303E9 ; 2.1166237225032336E11 ; 0.0
184 ; 4.219476911479754E7 ; 1.215375387564422E9 ; 8.027849702355744E9 ; 2.1287769097390195E11 ; 0.0
185 ; 4.217550274797602E7 ; 1.215431841774376E9 ; 8.070044471470542E9 ; 2.1409306636146637E11 ; 0.0
186 ; 4.215718583126859E7 ; 1.2154880845313308E9 ; 8.112219974218518E9 ; 2.1530849820324075E11 ; 0.0
187 ; 4.212919344756718E7 ; 1.2155441141742897E9 ; 8.154377160049787E9 ; 2.165239862877721E11 ; 0.0
188 ; 4.210852355275014E7 ; 1.2155999290581157E9 ; 8.196506353497354E9 ; 2.1773953040194638E11 ; 0.0
189 ; 4.2089658958381034E7 ; 1.2156555275532806E9 ; 8.238614877050104E9 ; 2.189551303310045E11 ; 0.0
190 ; 4.207361280619236E7 ; 1.2157109080456185E9 ; 8.280704536008485E9 ; 2.2017078585855777E11 ; 0.0
191 ; 4.205009985595745E7 ; 1.215766068936089E9 ; 8.322778148814677E9 ; 2.213864967666034E11 ; 0.0
192 ; 4.2033950820672855E7 ; 1.2158210086405463E9 ; 8.364828248670634E9 ; 2.226022628355395E11 ; 0.0
193 ; 4.201292243724471E7 ; 1.2158757255895174E9 ; 8.406862199491307E9 ; 2.2381808384418002E11 ; 0.0
194 ; 4.1984465738459595E7 ; 1.215930218227984E9 ; 8.448875121928552E9 ; 2.2503395956976953E11 ; 0.0
195 ; 4.197246943221617E7 ; 1.215984485015174E9 ; 8.490859587667011E9 ; 2.2624988978799753E11 ; 0.0
196 ; 4.194433855110602E7 ; 1.2160385244243581E9 ; 8.532832057099228E9 ; 2.274658742730127E11 ; 0.0
