CSV File for the Network on Day 362
1 - Minute m 
2 - Power Consumed at minute m 
3 - Power Produced at minute m 
4 - Energy Consumed since the beginning of the day 
5 - Energy Produced since the beginning of the day 
6 - Energy Lost since the beginning of the day 
 
0 ; 3.849796418702384E7 ; 6.339163511788292E8 ; 0.0 ; 0.0 ; 0.0
1 ; 3.853645989398408E7 ; 6.348256666923928E8 ; 3.849796418702384E7 ; 6.339163511788292E8 ; 0.0
2 ; 3.8573392972122416E7 ; 6.375884989172246E8 ; 7.703442408100793E7 ; 1.268742017871222E9 ; 0.0
3 ; 3.8625750086993136E7 ; 6.42204874709044E8 ; 1.1560781705313034E8 ; 1.9063305167884467E9 ; 0.0
4 ; 3.868650646268648E7 ; 6.486748183430483E8 ; 1.542335671401235E8 ; 2.548535391497491E9 ; 0.0
5 ; 3.87501152575341E7 ; 6.569983513111017E8 ; 1.9292007360280997E8 ; 3.197210209840539E9 ; 0.0
6 ; 3.88428817903435E7 ; 6.671754921367816E8 ; 2.3167018886034405E8 ; 3.854208561151641E9 ; 0.0
7 ; 3.896879212043844E7 ; 6.792062562118784E8 ; 2.705130706506876E8 ; 4.521384053288423E9 ; 0.0
8 ; 3.915417614045903E7 ; 6.930906556576307E8 ; 3.0948186277112603E8 ; 5.200590309500301E9 ; 0.0
9 ; 3.943672744068008E7 ; 7.088286992135854E8 ; 3.486360389115851E8 ; 5.893680965157932E9 ; 0.0
10 ; 3.9863520167755745E7 ; 7.264203921564393E8 ; 3.880727663522652E8 ; 6.602509664371517E9 ; 0.0
11 ; 4.055919747900766E7 ; 7.458657362506225E8 ; 4.279362865200209E8 ; 7.328930056527956E9 ; 0.0
12 ; 4.16620587444098E7 ; 7.671647297317051E8 ; 4.6849548399902856E8 ; 8.074795792778579E9 ; 0.0
13 ; 4.272492628774066E7 ; 7.903173673229895E8 ; 5.1015754274343836E8 ; 8.841960522510284E9 ; 0.0
14 ; 4.2857929111572266E7 ; 8.153236402849298E8 ; 5.528824690311791E8 ; 9.632277889833275E9 ; 0.0
15 ; 4.289887542132515E7 ; 8.421835364962867E8 ; 5.957403981427513E8 ; 1.0447601530118204E10 ; 0.0
16 ; 4.295211620636832E7 ; 8.708970405652708E8 ; 6.386392735640764E8 ; 1.128978506661449E10 ; 0.0
17 ; 4.299372709083159E7 ; 9.014641339683033E8 ; 6.815913897704448E8 ; 1.2160682107179762E10 ; 0.0
18 ; 4.3049576874940634E7 ; 9.33884795213521E8 ; 7.245851168612764E8 ; 1.3062146241148066E10 ; 0.0
19 ; 4.309988859775645E7 ; 9.681590000257261E8 ; 7.67634693736217E8 ; 1.3996031036361588E10 ; 0.0
20 ; 4.315563020866495E7 ; 1.0042867215491993E9 ; 8.107345823339735E8 ; 1.4964190036387314E10 ; 0.0
21 ; 4.3203265157016225E7 ; 1.0422679305646039E9 ; 8.538902125426385E8 ; 1.5968476757936514E10 ; 0.0
22 ; 4.324556584218127E7 ; 1.08210259571616E9 ; 8.970934776996548E8 ; 1.7010744688501118E10 ; 0.0
23 ; 4.3302614652459905E7 ; 1.1237906837453172E9 ; 9.403390435418361E8 ; 1.8092847284217278E10 ; 0.0
24 ; 4.335130467709426E7 ; 1.1673321597272952E9 ; 9.83641658194296E8 ; 1.9216637967962593E10 ; 0.0
25 ; 4.339595137413223E7 ; 1.2048552326962159E9 ; 1.0269929628713902E9 ; 2.0383970127689888E10 ; 0.0
26 ; 4.3451810928833626E7 ; 1.204881152098907E9 ; 1.0703889142455225E9 ; 2.1588825360386105E10 ; 0.0
27 ; 4.350012355290249E7 ; 1.2049084951704192E9 ; 1.1138407251743562E9 ; 2.2793706512485012E10 ; 0.0
28 ; 4.355081797546052E7 ; 1.204937222632075E9 ; 1.1573408487272587E9 ; 2.399861500765543E10 ; 0.0
29 ; 4.360650618493031E7 ; 1.2049672946577249E9 ; 1.2008916667027192E9 ; 2.5203552230287506E10 ; 0.0
30 ; 4.36422051274892E7 ; 1.2049986710683465E9 ; 1.2444981728876495E9 ; 2.6408519524945232E10 ; 0.0
31 ; 4.368845283563888E7 ; 1.2050313115133054E9 ; 1.2881403780151386E9 ; 2.761351819601358E10 ; 0.0
32 ; 4.373804498992637E7 ; 1.205065175637465E9 ; 1.3318288308507776E9 ; 2.8818549507526886E10 ; 0.0
33 ; 4.37752077656354E7 ; 1.2051002232336946E9 ; 1.375566875840704E9 ; 3.0023614683164352E10 ; 0.0
34 ; 4.382750210521183E7 ; 1.205136414380599E9 ; 1.4193420836063395E9 ; 3.122871490639805E10 ; 0.0
35 ; 4.3860999845949054E7 ; 1.2051737095655727E9 ; 1.4631695857115512E9 ; 3.243385132077865E10 ; 0.0
36 ; 4.390449335105707E7 ; 1.205212069793485E9 ; 1.5070305855575004E9 ; 3.3639025030344223E10 ; 0.0
37 ; 4.394318005514928E7 ; 1.2052514566814952E9 ; 1.5509350789085574E9 ; 3.484423710013771E10 ; 0.0
38 ; 4.397404037988597E7 ; 1.2052918325406308E9 ; 1.5948782589637067E9 ; 3.604948855681921E10 ; 0.0
39 ; 4.401458793948303E7 ; 1.205333160444878E9 ; 1.6388522993435926E9 ; 3.725478038935984E10 ; 0.0
40 ; 4.404935814660035E7 ; 1.2053754042886016E9 ; 1.6828668872830756E9 ; 3.846011354980472E10 ; 0.0
41 ; 4.407814594232343E7 ; 1.2054185288331616E9 ; 1.7269162454296758E9 ; 3.966548895409332E10 ; 0.0
42 ; 4.411387493759233E7 ; 1.205462499743626E9 ; 1.7709943913719993E9 ; 4.087090748292648E10 ; 0.0
43 ; 4.413410176225425E7 ; 1.2055072836164699E9 ; 1.8151082663095915E9 ; 4.207636998267011E10 ; 0.0
44 ; 4.416299925123622E7 ; 1.2055528479991448E9 ; 1.8592423680718458E9 ; 4.328187726628658E10 ; 0.0
45 ; 4.418521813218866E7 ; 1.20559916140238E9 ; 1.903405367323082E9 ; 4.448743011428573E10 ; 0.0
46 ; 4.421709311246598E7 ; 1.205646193306033E9 ; 1.9475905854552705E9 ; 4.569302927568811E10 ; 0.0
47 ; 4.4229109956692256E7 ; 1.2056939141592658E9 ; 1.9918076785677366E9 ; 4.689867546899414E10 ; 0.0
48 ; 4.4253338966886796E7 ; 1.205742295375776E9 ; 2.0360367885244288E9 ; 4.8104369383153404E10 ; 0.0
49 ; 4.427242644478319E7 ; 1.2057913093247597E9 ; 2.0802901274913156E9 ; 4.931011167852918E10 ; 0.0
50 ; 4.428490196487296E7 ; 1.205840929318225E9 ; 2.1245625539360988E9 ; 5.051590298785394E10 ; 0.0
51 ; 4.429380850858522E7 ; 1.205891129595226E9 ; 2.168847455900972E9 ; 5.1721743917172165E10 ; 0.0
52 ; 4.430531877111318E7 ; 1.2059418853035336E9 ; 2.2131412644095573E9 ; 5.292763504676739E10 ; 0.0
53 ; 4.431517060500668E7 ; 1.2059931724792051E9 ; 2.2574465831806707E9 ; 5.413357693207092E10 ; 0.0
54 ; 4.433063714764537E7 ; 1.2060449680244684E9 ; 2.3017617537856774E9 ; 5.5339570104550125E10 ; 0.0
55 ; 4.434358890435281E7 ; 1.206097249684293E9 ; 2.346092390933323E9 ; 5.654561507257459E10 ; 0.0
56 ; 4.435635879055926E7 ; 1.2061499960219674E9 ; 2.3904359798376756E9 ; 5.775171232225889E10 ; 0.0
57 ; 4.436118607547371E7 ; 1.2062031863939767E9 ; 2.434792338628235E9 ; 5.895786231828085E10 ; 0.0
58 ; 4.4375147147422984E7 ; 1.206256800924426E9 ; 2.4791535247037086E9 ; 6.016406550467483E10 ; 0.0
59 ; 4.439462016290238E7 ; 1.2063108204792254E9 ; 2.5235286718511314E9 ; 6.137032230559925E10 ; 0.0
60 ; 4.44000043965252E7 ; 1.2063652266402247E9 ; 2.567923292014034E9 ; 6.2576633126078476E10 ; 0.0
61 ; 4.4404002452248484E7 ; 1.206420001679457E9 ; 2.612323296410559E9 ; 6.3782998352718704E10 ; 0.0
62 ; 4.441927346378374E7 ; 1.2064751285336199E9 ; 2.6567272988628078E9 ; 6.498941835439816E10 ; 0.0
63 ; 4.441924551589646E7 ; 1.206530590778916E9 ; 2.7011465723265915E9 ; 6.6195893482931786E10 ; 0.0
64 ; 4.4427361962094165E7 ; 1.2065863726063342E9 ; 2.745565817842488E9 ; 6.74024240737107E10 ; 0.0
65 ; 4.443729278732532E7 ; 1.2066424587974598E9 ; 2.789993179804582E9 ; 6.860901044631703E10 ; 0.0
66 ; 4.4445534033376224E7 ; 1.2066988347008624E9 ; 2.8344304725919075E9 ; 6.981565290511449E10 ; 0.0
67 ; 4.445349426560771E7 ; 1.206755486209118E9 ; 2.8788760066252837E9 ; 7.102235173981535E10 ; 0.0
68 ; 4.445434612105705E7 ; 1.2068123997364964E9 ; 2.9233295008908916E9 ; 7.222910722602448E10 ; 0.0
69 ; 4.445868401175851E7 ; 1.2068695621973414E9 ; 2.9677838470119486E9 ; 7.343591962576097E10 ; 0.0
70 ; 4.446374383268792E7 ; 1.206926960985164E9 ; 3.012242531023707E9 ; 7.464278918795831E10 ; 0.0
71 ; 4.44740436916581E7 ; 1.2069845839524539E9 ; 3.056706274856395E9 ; 7.584971614894348E10 ; 0.0
72 ; 4.448342863863318E7 ; 1.2070424193912175E9 ; 3.101180318548053E9 ; 7.705670073289594E10 ; 0.0
73 ; 4.448864573739912E7 ; 1.2071004560142393E9 ; 3.145663747186686E9 ; 7.826374315228716E10 ; 0.0
74 ; 4.449520538919899E7 ; 1.207158682937064E9 ; 3.190152392924085E9 ; 7.947084360830139E10 ; 0.0
75 ; 4.448971300879134E7 ; 1.2072170896606827E9 ; 3.234647598313284E9 ; 8.067800229123845E10 ; 0.0
76 ; 4.4495010953834936E7 ; 1.2072756660549226E9 ; 3.2791373113220754E9 ; 8.188521938089914E10 ; 0.0
77 ; 4.449883792219573E7 ; 1.2073344023425155E9 ; 3.3236323222759104E9 ; 8.309249504695406E10 ; 0.0
78 ; 4.448458952122153E7 ; 1.2073932890838318E9 ; 3.3681311601981063E9 ; 8.429982944929657E10 ; 0.0
79 ; 4.4477542818609E7 ; 1.2074523171622646E9 ; 3.412615749719328E9 ; 8.55072227383804E10 ; 0.0
80 ; 4.446458374314025E7 ; 1.2075114777702413E9 ; 3.457093292537937E9 ; 8.671467505554266E10 ; 0.0
81 ; 4.4450203094105914E7 ; 1.207570762395844E9 ; 3.5015578762810774E9 ; 8.792218653331291E10 ; 0.0
82 ; 4.4441756704117686E7 ; 1.207630162810019E9 ; 3.546008079375183E9 ; 8.912975729570876E10 ; 0.0
83 ; 4.442429065439068E7 ; 1.2076896710543518E9 ; 3.590449836079301E9 ; 9.033738745851877E10 ; 0.0
84 ; 4.440845522316859E7 ; 1.2077492794293895E9 ; 3.6348741267336917E9 ; 9.154507712957312E10 ; 0.0
85 ; 4.440390053570543E7 ; 1.2078089804834905E9 ; 3.67928258195686E9 ; 9.27528264090025E10 ; 0.0
86 ; 4.439093360953629E7 ; 1.2078687670021734E9 ; 3.7236864824925656E9 ; 9.3960635389486E10 ; 0.0
87 ; 4.437069495112081E7 ; 1.2079286319979568E9 ; 3.768077416102102E9 ; 9.516850415648816E10 ; 0.0
88 ; 4.435025033295491E7 ; 1.2079885687006574E9 ; 3.8124481110532227E9 ; 9.637643278848611E10 ; 0.0
89 ; 4.434111207430868E7 ; 1.2080485705481346E9 ; 3.8567983613861775E9 ; 9.758442135718677E10 ; 0.0
90 ; 4.4331507577664584E7 ; 1.2081086311774611E9 ; 3.9011394734604864E9 ; 9.879246992773491E10 ; 0.0
91 ; 4.4306054054288685E7 ; 1.2081687444164968E9 ; 3.945470981038151E9 ; 1.0000057855891237E11 ; 0.0
92 ; 4.429605643404979E7 ; 1.2082289042758539E9 ; 3.9897770350924397E9 ; 1.0120874730332887E11 ; 0.0
93 ; 4.427564895413016E7 ; 1.208289104941231E9 ; 4.0340730915264893E9 ; 1.0241697620760472E11 ; 0.0
94 ; 4.426002604624004E7 ; 1.208349340766101E9 ; 4.0783487404806194E9 ; 1.0362526531254596E11 ; 0.0
95 ; 4.424067173275451E7 ; 1.208409606264738E9 ; 4.1226087665268593E9 ; 1.0483361465331206E11 ; 0.0
96 ; 4.4221222716506846E7 ; 1.208469896105564E9 ; 4.166849438259614E9 ; 1.060420242595768E11 ; 0.0
97 ; 4.420584063784565E7 ; 1.2085302051048043E9 ; 4.211070660976121E9 ; 1.0725049415568236E11 ; 0.0
98 ; 4.41860263063796E7 ; 1.2085905282204337E9 ; 4.2552765016139665E9 ; 1.0845902436078716E11 ; 0.0
99 ; 4.416776707677894E7 ; 1.208650860546404E9 ; 4.299462527920346E9 ; 1.0966761488900758E11 ; 0.0
100 ; 4.414893811270083E7 ; 1.208711197307133E9 ; 4.343630294997126E9 ; 1.1087626574955399E11 ; 0.0
101 ; 4.4122431337098256E7 ; 1.2087715338522506E9 ; 4.387779233109826E9 ; 1.1208497694686111E11 ; 0.0
102 ; 4.411138233714208E7 ; 1.2088318656515825E9 ; 4.431901664446924E9 ; 1.1329374848071336E11 ; 0.0
103 ; 4.408646163265958E7 ; 1.2088921882903655E9 ; 4.476013046784066E9 ; 1.1450258034636494E11 ; 0.0
104 ; 4.406527220189962E7 ; 1.2089524974646783E9 ; 4.520099508416726E9 ; 1.157114725346553E11 ; 0.0
105 ; 4.404131657077876E7 ; 1.2090127889770837E9 ; 4.564164780618626E9 ; 1.1692042503211998E11 ; 0.0
106 ; 4.401837637676922E7 ; 1.2090730587324655E9 ; 4.6082060971894045E9 ; 1.1812943782109706E11 ; 0.0
107 ; 4.3994885024176344E7 ; 1.209133302734055E9 ; 4.652224473566174E9 ; 1.1933851087982953E11 ; 0.0
108 ; 4.397587561726274E7 ; 1.2091935170796375E9 ; 4.69621935859035E9 ; 1.2054764418256358E11 ; 0.0
109 ; 4.39549958399211E7 ; 1.209253697957928E9 ; 4.740195234207613E9 ; 1.2175683769964322E11 ; 0.0
110 ; 4.392471610683355E7 ; 1.2093138416451101E9 ; 4.784150230047534E9 ; 1.2296609139760115E11 ; 0.0
111 ; 4.390456912171591E7 ; 1.2093739445015311E9 ; 4.828074946154367E9 ; 1.2417540523924626E11 ; 0.0
112 ; 4.387185897770332E7 ; 1.2094340029685395E9 ; 4.871979515276083E9 ; 1.2538477918374779E11 ; 0.0
113 ; 4.384994584806134E7 ; 1.2094940135654695E9 ; 4.915851374253786E9 ; 1.2659421318671632E11 ; 0.0
114 ; 4.382809863882267E7 ; 1.2095539728867538E9 ; 4.959701320101848E9 ; 1.278037072002818E11 ; 0.0
115 ; 4.38048752030113E7 ; 1.2096138775991657E9 ; 5.00352941874067E9 ; 1.2901326117316855E11 ; 0.0
116 ; 4.3767574953520045E7 ; 1.2096737244391806E9 ; 5.047334293943682E9 ; 1.3022287505076772E11 ; 0.0
117 ; 4.375364560670076E7 ; 1.2097335102104568E9 ; 5.091101868897202E9 ; 1.314325487752069E11 ; 0.0
118 ; 4.371978184596303E7 ; 1.2097932317814212E9 ; 5.134855514503902E9 ; 1.3264228228541736E11 ; 0.0
119 ; 4.369044248009394E7 ; 1.2098528860829613E9 ; 5.178575296349866E9 ; 1.3385207551719878E11 ; 0.0
120 ; 4.36684397137262E7 ; 1.2099124701062202E9 ; 5.22226573882996E9 ; 1.3506192840328174E11 ; 0.0
121 ; 4.36334802385982E7 ; 1.2099719809004817E9 ; 5.265934178543686E9 ; 1.3627184087338795E11 ; 0.0
122 ; 4.3610876007297724E7 ; 1.2100314155711486E9 ; 5.309567658782284E9 ; 1.3748181285428842E11 ; 0.0
123 ; 4.357776987779523E7 ; 1.2100907712778077E9 ; 5.353178534789581E9 ; 1.3869184426985956E11 ; 0.0
124 ; 4.354497871139817E7 ; 1.2101500452323754E9 ; 5.3967563046673765E9 ; 1.3990193504113736E11 ; 0.0
125 ; 4.351163631779881E7 ; 1.2102092346973228E9 ; 5.440301283378775E9 ; 1.4111208508636972E11 ; 0.0
126 ; 4.349018722464464E7 ; 1.2102683369839768E9 ; 5.483812919696573E9 ; 1.4232229432106705E11 ; 0.0
127 ; 4.344802800716789E7 ; 1.2103273494508893E9 ; 5.527303106921218E9 ; 1.4353256265805103E11 ; 0.0
128 ; 4.3423032524598815E7 ; 1.210386269502278E9 ; 5.570751134928386E9 ; 1.4474289000750192E11 ; 0.0
129 ; 4.339419618936155E7 ; 1.2104450945865302E9 ; 5.614174167452985E9 ; 1.459532762770042E11 ; 0.0
130 ; 4.335400818010449E7 ; 1.210503822194769E9 ; 5.657568363642346E9 ; 1.4716372137159073E11 ; 0.0
131 ; 4.33108086232877E7 ; 1.2105624498594794E9 ; 5.700922371822451E9 ; 1.483742251937855E11 ; 0.0
132 ; 4.325981016754754E7 ; 1.2106209751531892E9 ; 5.744233180445739E9 ; 1.4958478764364496E11 ; 0.0
133 ; 4.321656786356524E7 ; 1.210679395687206E9 ; 5.787492990613286E9 ; 1.5079540861879816E11 ; 0.0
134 ; 4.316718200035597E7 ; 1.2107377091104045E9 ; 5.830709558476851E9 ; 1.5200608801448535E11 ; 0.0
135 ; 4.31250326127312E7 ; 1.210795913108062E9 ; 5.873876740477207E9 ; 1.5321682572359576E11 ; 0.0
136 ; 4.307548673849669E7 ; 1.2108540054007444E9 ; 5.917001773089938E9 ; 1.5442762163670383E11 ; 0.0
137 ; 4.302477337592229E7 ; 1.2109119837432323E9 ; 5.960077259828435E9 ; 1.5563847564210458E11 ; 0.0
138 ; 4.297813522370861E7 ; 1.2109698459234946E9 ; 6.003102033204357E9 ; 1.568493876258478E11 ; 0.0
139 ; 4.292695288305661E7 ; 1.211027589761699E9 ; 6.046080168428065E9 ; 1.580603574717713E11 ; 0.0
140 ; 4.288165281021693E7 ; 1.2110852131092663E9 ; 6.089007121311122E9 ; 1.59271385061533E11 ; 0.0
141 ; 4.282744735488551E7 ; 1.2111427138479578E9 ; 6.131888774121339E9 ; 1.6048247027464224E11 ; 0.0
142 ; 4.278905818727614E7 ; 1.2112000898890014E9 ; 6.174716221476224E9 ; 1.616936129884902E11 ; 0.0
143 ; 4.273671641320798E7 ; 1.2112573391722512E9 ; 6.2175052796635E9 ; 1.629048130783792E11 ; 0.0
144 ; 4.2685598546307914E7 ; 1.211314459665379E9 ; 6.260241996076708E9 ; 1.6411607041755145E11 ; 0.0
145 ; 4.264578123465735E7 ; 1.2113714493630996E9 ; 6.302927594623015E9 ; 1.6532738487721683E11 ; 0.0
146 ; 4.261106149871419E7 ; 1.2114283062864232E9 ; 6.345573375857673E9 ; 1.6653875632657993E11 ; 0.0
147 ; 4.2577120307921305E7 ; 1.2114850284819396E9 ; 6.388184437356387E9 ; 1.6775018463286636E11 ; 0.0
148 ; 4.254148091539998E7 ; 1.2115416140211275E9 ; 6.430761557664309E9 ; 1.689616696613483E11 ; 0.0
149 ; 4.250323608617665E7 ; 1.2115980609996915E9 ; 6.473303038579708E9 ; 1.7017321127536942E11 ; 0.0
150 ; 4.24715040191993E7 ; 1.211654367536924E9 ; 6.515806274665885E9 ; 1.713848093363691E11 ; 0.0
151 ; 4.2429778726124525E7 ; 1.2117105317750912E9 ; 6.558277778685084E9 ; 1.7259646370390604E11 ; 0.0
152 ; 4.240252572480065E7 ; 1.2117665518788443E9 ; 6.600707557411209E9 ; 1.7380817423568112E11 ; 0.0
153 ; 4.2368932475784615E7 ; 1.211822426034649E9 ; 6.64311008313601E9 ; 1.7501994078755997E11 ; 0.0
154 ; 4.232348761776084E7 ; 1.2118781524502394E9 ; 6.685479015611794E9 ; 1.762317632135946E11 ; 0.0
155 ; 4.229424613135058E7 ; 1.2119337293540921E9 ; 6.727802503229555E9 ; 1.7744364136604483E11 ; 0.0
156 ; 4.2255526841795295E7 ; 1.2119891549949186E9 ; 6.770096749360906E9 ; 1.7865557509539893E11 ; 0.0
157 ; 4.2221523408611745E7 ; 1.2120444276411781E9 ; 6.812352276202701E9 ; 1.7986756425039383E11 ; 0.0
158 ; 4.218845283799924E7 ; 1.2120995455806065E9 ; 6.854573799611312E9 ; 1.81079608678035E11 ; 0.0
159 ; 4.215231062704064E7 ; 1.2121545071197653E9 ; 6.896762252449311E9 ; 1.822917082236156E11 ; 0.0
160 ; 4.2111790501364104E7 ; 1.2122093105836036E9 ; 6.938914563076352E9 ; 1.8350386273073535E11 ; 0.0
161 ; 4.2071678193818666E7 ; 1.2122639543150399E9 ; 6.981026353577716E9 ; 1.8471607204131897E11 ; 0.0
162 ; 4.203897566631137E7 ; 1.212318436674556E9 ; 7.023098031771535E9 ; 1.85928335995634E11 ; 0.0
163 ; 4.199900149258469E7 ; 1.2123727560398085E9 ; 7.065137007437846E9 ; 1.8714065443230856E11 ; 0.0
164 ; 4.196371573844797E7 ; 1.212426910805251E9 ; 7.10713600893043E9 ; 1.8835302718834836E11 ; 0.0
165 ; 4.193069405098347E7 ; 1.2124808993817732E9 ; 7.149099724668879E9 ; 1.895654540991536E11 ; 0.0
166 ; 4.189293735056093E7 ; 1.2125347201963513E9 ; 7.191030418719862E9 ; 1.9077793499853537E11 ; 0.0
167 ; 4.184777850577586E7 ; 1.2125883716917112E9 ; 7.232923356070423E9 ; 1.9199046971873172E11 ; 0.0
168 ; 4.1811946062281586E7 ; 1.2126418523260036E9 ; 7.274771134576199E9 ; 1.9320305809042343E11 ; 0.0
169 ; 4.177650959971527E7 ; 1.2126951605724902E9 ; 7.31658308063848E9 ; 1.9441569994274942E11 ; 0.0
170 ; 4.173688697013625E7 ; 1.2127482949192443E9 ; 7.358359590238195E9 ; 1.956283951033219E11 ; 0.0
171 ; 4.169867599439999E7 ; 1.2128012538688555E9 ; 7.400096477208332E9 ; 1.9684114339824115E11 ; 0.0
172 ; 4.165306766315083E7 ; 1.2128540359381523E9 ; 7.441795153202732E9 ; 1.9805394465211002E11 ; 0.0
173 ; 4.161696715102413E7 ; 1.2129066396579287E9 ; 7.483448220865883E9 ; 1.9926679868804816E11 ; 0.0
174 ; 4.159840613572748E7 ; 1.212959063572683E9 ; 7.525065188016907E9 ; 2.004797053277061E11 ; 0.0
175 ; 4.157583785056831E7 ; 1.2130113062403665E9 ; 7.566663594152635E9 ; 2.0169266439127878E11 ; 0.0
176 ; 4.155150902575225E7 ; 1.2130633662321377E9 ; 7.608239432003203E9 ; 2.0290567569751913E11 ; 0.0
177 ; 4.152417714286277E7 ; 1.2131152421321297E9 ; 7.649790941028955E9 ; 2.0411873906375128E11 ; 0.0
178 ; 4.150552170291203E7 ; 1.213166932537221E9 ; 7.691315118171818E9 ; 2.0533185430588342E11 ; 0.0
179 ; 4.1480715389807045E7 ; 1.2132184360568163E9 ; 7.73282063987473E9 ; 2.0654502123842065E11 ; 0.0
180 ; 4.1460198706758685E7 ; 1.2132697513126378E9 ; 7.774301355264537E9 ; 2.0775823967447748E11 ; 0.0
181 ; 4.143003674119169E7 ; 1.2133208769385169E9 ; 7.815761553971295E9 ; 2.0897150942579013E11 ; 0.0
182 ; 4.1401404080021605E7 ; 1.2133718115802E9 ; 7.857191590712487E9 ; 2.1018483030272864E11 ; 0.0
183 ; 4.139077192183529E7 ; 1.2134225538951564E9 ; 7.898592994792509E9 ; 2.1139820211430884E11 ; 0.0
184 ; 4.135889855654695E7 ; 1.2134731025523949E9 ; 7.939983766714344E9 ; 2.1261162466820398E11 ; 0.0
185 ; 4.134015798617394E7 ; 1.2135234562322855E9 ; 7.981342665270891E9 ; 2.1382509777075638E11 ; 0.0
186 ; 4.131335185199713E7 ; 1.2135736136263885E9 ; 8.022682823257065E9 ; 2.1503862122698868E11 ; 0.0
187 ; 4.129074473188499E7 ; 1.213623573437289E9 ; 8.063996175109062E9 ; 2.1625219484061505E11 ; 0.0
188 ; 4.1261486095231675E7 ; 1.2136733343784342E9 ; 8.105286919840947E9 ; 2.1746581841405234E11 ; 0.0
189 ; 4.124255499479151E7 ; 1.213722895173982E9 ; 8.146548405936179E9 ; 2.186794917484308E11 ; 0.0
190 ; 4.1217042091530934E7 ; 1.213772254558649E9 ; 8.187790960930971E9 ; 2.1989321464360477E11 ; 0.0
191 ; 4.1191073659534335E7 ; 1.2138214112775674E9 ; 8.229008003022502E9 ; 2.2110698689816342E11 ; 0.0
192 ; 4.117241642839049E7 ; 1.213870364086144E9 ; 8.270199076682036E9 ; 2.2232080830944098E11 ; 0.0
193 ; 4.11450649818081E7 ; 1.213919111749927E9 ; 8.311371493110427E9 ; 2.2353467867352713E11 ; 0.0
194 ; 4.112280855002099E7 ; 1.213967653044474E9 ; 8.352516558092235E9 ; 2.2474859778527707E11 ; 0.0
195 ; 4.109884288750878E7 ; 1.2140159867552266E9 ; 8.393639366642256E9 ; 2.2596256543832153E11 ; 0.0
196 ; 4.1071314100494795E7 ; 1.2140641116773887E9 ; 8.434738209529764E9 ; 2.2717658142507675E11 ; 0.0
