CSV File for the Network on Day 21
1 - Minute m 
2 - Power Consumed at minute m 
3 - Power Produced at minute m 
4 - Energy Consumed since the beginning of the day 
5 - Energy Produced since the beginning of the day 
6 - Energy Lost since the beginning of the day 
 
0 ; 4535939.056441293 ; 2.1045816251410747E8 ; 0.0 ; 0.0 ; 0.0
1 ; 4539831.287677223 ; 2.1075778483896565E8 ; 4535939.056441293 ; 2.1045816251410747E8 ; 356.14
2 ; 4545200.17863813 ; 2.116750563394006E8 ; 9075770.344118517 ; 4.212159473530731E8 ; 712.28
3 ; 4550362.261454709 ; 2.1321006402031016E8 ; 1.3620970522756647E7 ; 6.328910036924736E8 ; 1068.42
4 ; 4552192.333254212 ; 2.1536291739363474E8 ; 1.8171332784211356E7 ; 8.461010677127838E8 ; 1424.56
5 ; 4557369.814917362 ; 2.1813375220577168E8 ; 2.2723525117465567E7 ; 1.0614639851064186E9 ; 1780.6999999999998
6 ; 4561856.2459197845 ; 2.2152273189038646E8 ; 2.728089493238293E7 ; 1.2795977373121903E9 ; 2136.8399999999997
7 ; 4564814.8287491 ; 2.2553004359323418E8 ; 3.1842751178302713E7 ; 1.5011204692025766E9 ; 2492.9799999999996
8 ; 4567002.292565612 ; 2.3015588466033447E8 ; 3.640756600705181E7 ; 1.7266505127958107E9 ; 2849.1199999999994
9 ; 4572352.188380063 ; 2.3540043682745916E8 ; 4.0974568299617425E7 ; 1.9568063974561453E9 ; 3205.2599999999993
10 ; 4576180.118820417 ; 2.4126383117238194E8 ; 4.554692048799749E7 ; 2.1922068342836046E9 ; 3561.399999999999
11 ; 4579521.710190292 ; 2.477461158398049E8 ; 5.01231006068179E7 ; 2.4334706654559865E9 ; 3917.539999999999
12 ; 4582148.867515961 ; 2.5484724268502587E8 ; 5.47026223170082E7 ; 2.6812167812957916E9 ; 4273.679999999999
13 ; 4586340.830912953 ; 2.6256708063027117E8 ; 5.9284771184524156E7 ; 2.9360640239808173E9 ; 4629.82
14 ; 4589009.053548486 ; 2.709054479397692E8 ; 6.387111201543711E7 ; 3.1986311046110883E9 ; 4985.96
15 ; 4591140.529536441 ; 2.7986214726750004E8 ; 6.84601210689856E7 ; 3.4695365525508575E9 ; 5342.1
16 ; 4594956.77197101 ; 2.894369914677088E8 ; 7.305126159852204E7 ; 3.7493986998183575E9 ; 5698.240000000001
17 ; 4598968.279213132 ; 2.996298171067299E8 ; 7.764621837049305E7 ; 4.038835691286066E9 ; 6054.380000000001
18 ; 4602479.405112298 ; 3.10440488438166E8 ; 8.224518664970618E7 ; 4.338465508392796E9 ; 6410.520000000001
19 ; 4603282.706369022 ; 3.2186889595007676E8 ; 8.684766605481848E7 ; 4.648905996830961E9 ; 6766.660000000002
20 ; 4607798.495266698 ; 3.339149526375642E8 ; 9.145094876118751E7 ; 4.970774892781038E9 ; 7122.800000000002
21 ; 4611344.167388037 ; 3.465785898105326E8 ; 9.60587472564542E7 ; 5.304689845418602E9 ; 7478.940000000002
22 ; 4615496.341948392 ; 3.5985975326471525E8 ; 1.0067009142384224E8 ; 5.651268435229135E9 ; 7835.080000000003
23 ; 4617058.408534344 ; 3.7375840009089094E8 ; 1.0528558776579063E8 ; 6.01112818849385E9 ; 8191.220000000003
24 ; 4621963.0296923835 ; 3.882744961368589E8 ; 1.0990264617432497E8 ; 6.384886588584741E9 ; 8547.360000000002
25 ; 4623862.6603860175 ; 4.007840958332604E8 ; 1.1452460920401736E8 ; 6.7731610847216E9 ; 8903.500000000002
26 ; 4629113.698206155 ; 4.0079427275528353E8 ; 1.1914847186440337E8 ; 7.17394518055486E9 ; 9259.640000000001
27 ; 4629914.7038104925 ; 4.008045475172303E8 ; 1.2377758556260952E8 ; 7.574739453310143E9 ; 9615.78
28 ; 4633211.358011877 ; 4.008149053833184E8 ; 1.2840750026642002E8 ; 7.9755440008273735E9 ; 9971.92
29 ; 4636033.493204223 ; 4.0082533417765164E8 ; 1.330407116244319E8 ; 8.376358906210691E9 ; 10328.06
30 ; 4636045.446731008 ; 4.008358237633076E8 ; 1.376767451176361E8 ; 8.777184240388344E9 ; 10684.199999999999
31 ; 4638548.506580976 ; 4.008463656389395E8 ; 1.4231279056436712E8 ; 9.178020064151651E9 ; 11040.339999999998
32 ; 4644026.155898752 ; 4.00856952624398E8 ; 1.469513390709481E8 ; 9.57886642979059E9 ; 11396.479999999998
33 ; 4645463.74803991 ; 4.008675786141021E8 ; 1.5159536522684684E8 ; 9.979723382414988E9 ; 11752.619999999997
34 ; 4646978.173960712 ; 4.0087823838225377E8 ; 1.5624082897488675E8 ; 1.0380590961029089E10 ; 12108.759999999997
35 ; 4651041.894180989 ; 4.00888927427966E8 ; 1.6088780714884746E8 ; 1.0781469199411343E10 ; 12464.899999999996
36 ; 4654155.27390326 ; 4.008996418513135E8 ; 1.6553884904302844E8 ; 1.1182358126839308E10 ; 12821.039999999995
37 ; 4653509.7778875055 ; 4.0091037825349313E8 ; 1.701930043169317E8 ; 1.158325776869062E10 ; 13177.179999999995
38 ; 4659292.575497099 ; 4.0092113365590525E8 ; 1.748465140948192E8 ; 1.1984168146944113E10 ; 13533.319999999994
39 ; 4661065.36126827 ; 4.0093190543417615E8 ; 1.7950580667031628E8 ; 1.2385089280600018E10 ; 13889.459999999994
40 ; 4658836.105036851 ; 4.009426912640531E8 ; 1.8416687203158456E8 ; 1.2786021186034193E10 ; 14245.599999999993
41 ; 4661450.952780572 ; 4.009534890767893E8 ; 1.8882570813662142E8 ; 1.3186963877298246E10 ; 14601.739999999993
42 ; 4664496.302098573 ; 4.009642970221609E8 ; 1.93487159089402E8 ; 1.3587917366375036E10 ; 14957.879999999992
43 ; 4665438.39063186 ; 4.009751134376531E8 ; 1.9815165539150056E8 ; 1.3988881663397198E10 ; 15314.019999999991
44 ; 4667546.638410259 ; 4.0098593682266444E8 ; 2.0281709378213242E8 ; 1.438985677683485E10 ; 15670.15999999999
45 ; 4668399.579059253 ; 4.0099676581680906E8 ; 2.074846404205427E8 ; 1.4790842713657515E10 ; 16026.29999999999
46 ; 4671777.276068294 ; 4.010075991815878E8 ; 2.1215303999960193E8 ; 1.5191839479474323E10 ; 16382.43999999999
47 ; 4673460.650839585 ; 4.0101843578483737E8 ; 2.1682481727567023E8 ; 1.559284707865591E10 ; 16738.57999999999
48 ; 4675701.793311641 ; 4.0102927458748436E8 ; 2.2149827792650983E8 ; 1.5993865514440748E10 ; 17094.71999999999
49 ; 4674665.242853964 ; 4.010401146322186E8 ; 2.2617397971982145E8 ; 1.6394894789028233E10 ; 17450.85999999999
50 ; 4675946.861063876 ; 4.0105095503377104E8 ; 2.3084864496267542E8 ; 1.6795934903660452E10 ; 17806.99999999999
51 ; 4676711.022854625 ; 4.010617949705402E8 ; 2.355245918237393E8 ; 1.719698585869422E10 ; 18163.13999999999
52 ; 4676070.374043459 ; 4.010726336773554E8 ; 2.4020130284659392E8 ; 1.759804765366476E10 ; 18519.279999999988
53 ; 4679494.880749727 ; 4.010834704392009E8 ; 2.4487737322063738E8 ; 1.7999120287342117E10 ; 18875.419999999987
54 ; 4679566.976323385 ; 4.010943045857586E8 ; 2.495568681013871E8 ; 1.840020375778132E10 ; 19231.559999999987
55 ; 4680020.632684162 ; 4.0110513548664623E8 ; 2.542364350777105E8 ; 1.8801298062367077E10 ; 19587.699999999986
56 ; 4680956.167585235 ; 4.0111596254725116E8 ; 2.5891645571039468E8 ; 1.920240319785372E10 ; 19943.839999999986
57 ; 4681589.164538826 ; 4.0112678520507574E8 ; 2.635974118779799E8 ; 1.9603519160400974E10 ; 20299.979999999985
58 ; 4684020.497443482 ; 4.0113760292652214E8 ; 2.6827900104251873E8 ; 2.000464594560605E10 ; 20656.119999999984
59 ; 4683431.419066143 ; 4.011484152040573E8 ; 2.7296302153996223E8 ; 2.040578354853257E10 ; 21012.259999999984
60 ; 4685443.633408814 ; 4.011592215537057E8 ; 2.7764645295902836E8 ; 2.0806931963736626E10 ; 21368.399999999983
61 ; 4683829.746172648 ; 4.011700215128287E8 ; 2.8233189659243715E8 ; 2.1208091185290333E10 ; 21724.539999999983
62 ; 4686008.66094722 ; 4.011808146381513E8 ; 2.870157263386098E8 ; 2.160926120680316E10 ; 22080.679999999982
63 ; 4687658.211205438 ; 4.0119160050400615E8 ; 2.91701734999557E8 ; 2.2010442021441315E10 ; 22436.81999999998
64 ; 4687487.673413203 ; 4.0120237870076734E8 ; 2.9638939321076244E8 ; 2.241163362194532E10 ; 22792.95999999998
65 ; 4688686.840806902 ; 4.0121314883344996E8 ; 3.0107688088417566E8 ; 2.2812836000646088E10 ; 23149.09999999998
66 ; 4688594.680930268 ; 4.0122391052045655E8 ; 3.0576556772498256E8 ; 2.3214049149479538E10 ; 23505.23999999998
67 ; 4691889.70229192 ; 4.012346633924521E8 ; 3.104541624059128E8 ; 2.3615273059999996E10 ; 23861.37999999998
68 ; 4693033.718406006 ; 4.012454070913525E8 ; 3.151460521082047E8 ; 2.401650772339245E10 ; 24217.51999999998
69 ; 4692549.569367022 ; 4.012561412694142E8 ; 3.1983908582661074E8 ; 2.4417753130483803E10 ; 24573.659999999978
70 ; 4691953.496198478 ; 4.012668655884125E8 ; 3.245316353959778E8 ; 2.4819009271753216E10 ; 24929.799999999977
71 ; 4690976.529517516 ; 4.0127757971889997E8 ; 3.292235888921763E8 ; 2.522027613734163E10 ; 25285.939999999977
72 ; 4691896.129929129 ; 4.0128828333953404E8 ; 3.339145654216938E8 ; 2.5621553717060528E10 ; 25642.079999999976
73 ; 4692614.839493536 ; 4.012989761364691E8 ; 3.386064615516229E8 ; 2.6022842000400063E10 ; 25998.219999999976
74 ; 4692521.255785183 ; 4.0130965780280375E8 ; 3.4329907639111644E8 ; 2.6424140976536533E10 ; 26354.359999999975
75 ; 4690666.235355126 ; 4.013203280380784E8 ; 3.479915976469016E8 ; 2.6825450634339336E10 ; 26710.499999999975
76 ; 4691326.949450362 ; 4.0133098654781854E8 ; 3.5268226388225675E8 ; 2.7226770962377415E10 ; 27066.639999999974
77 ; 4690495.688387233 ; 4.01341633043118E8 ; 3.573735908317071E8 ; 2.7628101948925232E10 ; 27422.779999999973
78 ; 4691124.152974214 ; 4.013522672402585E8 ; 3.6206408652009434E8 ; 2.802944358196835E10 ; 27778.919999999973
79 ; 4688746.9340892965 ; 4.0136288886036277E8 ; 3.667552106730685E8 ; 2.8430795849208607E10 ; 28135.059999999972
80 ; 4691258.174853243 ; 4.013734976290761E8 ; 3.714439576071578E8 ; 2.883215873806897E10 ; 28491.19999999997
81 ; 4690071.414957648 ; 4.013840932762755E8 ; 3.761352157820111E8 ; 2.9233532235698048E10 ; 28847.33999999997
82 ; 4691808.306885735 ; 4.0139467553580284E8 ; 3.8082528719696873E8 ; 2.9634916328974323E10 ; 29203.47999999997
83 ; 4689951.888439939 ; 4.014052441452193E8 ; 3.8551709550385445E8 ; 3.0036311004510124E10 ; 29559.61999999997
84 ; 4692695.948822291 ; 4.014157988455808E8 ; 3.902070473922944E8 ; 3.0437716248655342E10 ; 29915.75999999997
85 ; 4692730.381038702 ; 4.014263393812303E8 ; 3.948997433411167E8 ; 3.0839132047500923E10 ; 30271.89999999997
86 ; 4691495.656932454 ; 4.014368654996071E8 ; 3.9959247372215545E8 ; 3.1240558386882153E10 ; 30628.039999999968
87 ; 4691367.5128752785 ; 4.014473769510712E8 ; 4.042839693790879E8 ; 3.164199525238176E10 ; 30984.179999999968
88 ; 4689013.029893854 ; 4.0145787348874104E8 ; 4.089753368919632E8 ; 3.2043442629332832E10 ; 31340.319999999967
89 ; 4690747.374684201 ; 4.0146835486834353E8 ; 4.1366434992185706E8 ; 3.2444900502821575E10 ; 31696.459999999966
90 ; 4688660.591195876 ; 4.0147882084807575E8 ; 4.183550972965413E8 ; 3.284636885768992E10 ; 32052.599999999966
91 ; 4687645.533919882 ; 4.014892711884768E8 ; 4.2304375788773715E8 ; 3.3247847678537994E10 ; 32408.739999999965
92 ; 4687407.769774677 ; 4.014997056523096E8 ; 4.27731403421657E8 ; 3.364933694972647E10 ; 32764.879999999965
93 ; 4686641.055783098 ; 4.0151012400445056E8 ; 4.324188111914317E8 ; 3.405083665537878E10 ; 33121.01999999997
94 ; 4687496.871109973 ; 4.015205260117883E8 ; 4.371054522472148E8 ; 3.445234677938323E10 ; 33477.15999999997
95 ; 4684281.700045642 ; 4.0153091144312894E8 ; 4.4179294911832476E8 ; 3.485386730539502E10 ; 33833.29999999997
96 ; 4683283.637017742 ; 4.0154128006910837E8 ; 4.464772308183704E8 ; 3.525539821683815E10 ; 34189.439999999966
97 ; 4682839.578308155 ; 4.015516316621112E8 ; 4.511605144553881E8 ; 3.565693949690726E10 ; 34545.579999999965
98 ; 4681248.949184756 ; 4.015619659961947E8 ; 4.558433540336963E8 ; 3.605849112856937E10 ; 34901.719999999965
99 ; 4681775.155437701 ; 4.015722828470185E8 ; 4.6052460298288107E8 ; 3.646005309456556E10 ; 35257.859999999964
100 ; 4682371.311973795 ; 4.0158258199177897E8 ; 4.652063781383188E8 ; 3.6861625377412575E10 ; 35613.99999999996
101 ; 4681074.978541678 ; 4.015928632091485E8 ; 4.698887494502926E8 ; 3.726320795940435E10 ; 35970.13999999996
102 ; 4678517.909018382 ; 4.0160312627921844E8 ; 4.7456982442883426E8 ; 3.76648008226135E10 ; 36326.27999999996
103 ; 4678858.4231754895 ; 4.0161337098344624E8 ; 4.7924834233785266E8 ; 3.806640394889272E10 ; 36682.41999999996
104 ; 4678185.734682617 ; 4.016235971046059E8 ; 4.839272007610282E8 ; 3.846801731987617E10 ; 37038.55999999996
105 ; 4677277.810246522 ; 4.0163380442674196E8 ; 4.886053864957108E8 ; 3.8869640916980774E10 ; 37394.69999999996
106 ; 4676185.426210589 ; 4.0164399273512673E8 ; 4.932826643059573E8 ; 3.927127472140752E10 ; 37750.83999999996
107 ; 4674459.533198921 ; 4.016541618162198E8 ; 4.979588497321679E8 ; 3.967291871414265E10 ; 38106.97999999996
108 ; 4669367.415002312 ; 4.016643114576309E8 ; 5.026333092653668E8 ; 4.007457287595887E10 ; 38463.11999999996
109 ; 4670598.896985949 ; 4.0167444144808435E8 ; 5.073026766803691E8 ; 4.0476237187416504E10 ; 38819.25999999996
110 ; 4668926.847569305 ; 4.01684551577387E8 ; 5.11973275577355E8 ; 4.0877911628864586E10 ; 39175.39999999996
111 ; 4668614.288038516 ; 4.016946416363971E8 ; 5.166422024249243E8 ; 4.127959618044197E10 ; 39531.53999999996
112 ; 4666138.377812179 ; 4.017047114169961E8 ; 5.213108167129628E8 ; 4.168129082207837E10 ; 39887.67999999996
113 ; 4665661.070689025 ; 4.0171476071206164E8 ; 5.25976955090775E8 ; 4.208299553349537E10 ; 40243.819999999956
114 ; 4663849.456800736 ; 4.0172478931544256E8 ; 5.3064261616146404E8 ; 4.248471029420743E10 ; 40599.959999999955
115 ; 4661901.608828963 ; 4.017347970219357E8 ; 5.353064656182648E8 ; 4.288643508352287E10 ; 40956.099999999955
116 ; 4660013.89096922 ; 4.017447836272639E8 ; 5.399683672270938E8 ; 4.328816988054481E10 ; 41312.239999999954
117 ; 4659773.077876347 ; 4.017547489280555E8 ; 5.446283811180631E8 ; 4.368991466417207E10 ; 41668.379999999954
118 ; 4657209.93234987 ; 4.0176469272182524E8 ; 5.492881541959394E8 ; 4.409166941310013E10 ; 42024.51999999995
119 ; 4657341.344030248 ; 4.0177461480695635E8 ; 5.539453641282893E8 ; 4.449343410582195E10 ; 42380.65999999995
120 ; 4655521.640476812 ; 4.0178451498268384E8 ; 5.586027054723196E8 ; 4.489520872062891E10 ; 42736.79999999995
121 ; 4654128.098938038 ; 4.017943930490787E8 ; 5.632582271127964E8 ; 4.529699323561159E10 ; 43092.93999999995
122 ; 4650653.962592026 ; 4.018042488070336E8 ; 5.679123552117344E8 ; 4.569878762866067E10 ; 43449.07999999995
123 ; 4648154.770604429 ; 4.0181408205824864E8 ; 5.725630091743264E8 ; 4.6100591877467705E10 ; 43805.21999999995
124 ; 4646569.876026344 ; 4.0182389260521907E8 ; 5.772111639449308E8 ; 4.6502405959525955E10 ; 44161.35999999995
125 ; 4641683.411267578 ; 4.01833680251223E8 ; 5.818577338209572E8 ; 4.690422985213117E10 ; 44517.49999999995
126 ; 4639578.649044911 ; 4.0184344480031055E8 ; 5.864994172322247E8 ; 4.730606353238239E10 ; 44873.63999999995
127 ; 4635457.100439189 ; 4.0185318605729306E8 ; 5.911389958812696E8 ; 4.77079069771827E10 ; 45229.77999999995
128 ; 4634923.285072365 ; 4.018629038277335E8 ; 5.957744529817088E8 ; 4.810976016324E10 ; 45585.91999999995
129 ; 4630771.363732232 ; 4.0187259791793764E8 ; 6.004093762667811E8 ; 4.851162306706773E10 ; 45942.05999999995
130 ; 4628977.066046612 ; 4.0188226813494515E8 ; 6.050401476305133E8 ; 4.891349566498567E10 ; 46298.199999999946
131 ; 4625455.08007678 ; 4.0189191428652227E8 ; 6.096691246965599E8 ; 4.931537793312062E10 ; 46654.339999999946
132 ; 4622451.651952918 ; 4.019015361811539E8 ; 6.142945797766367E8 ; 4.971726984740714E10 ; 47010.479999999945
133 ; 4619758.103057615 ; 4.0191113362803733E8 ; 6.189170314285896E8 ; 5.0119171383588295E10 ; 47366.619999999944
134 ; 4616359.70708961 ; 4.019207064370755E8 ; 6.235367895316472E8 ; 5.052108251721633E10 ; 47722.759999999944
135 ; 4614942.015219228 ; 4.0193025441887146E8 ; 6.281531492387369E8 ; 5.0923003223653404E10 ; 48078.89999999994
136 ; 4613441.794412944 ; 4.019397773847227E8 ; 6.327680912539561E8 ; 5.132493347807227E10 ; 48435.03999999994
137 ; 4612038.346748326 ; 4.019492751466162E8 ; 6.37381533048369E8 ; 5.172687325545699E10 ; 48791.17999999994
138 ; 4607134.516108898 ; 4.019587475172242E8 ; 6.419935713951174E8 ; 5.212882253060361E10 ; 49147.31999999994
139 ; 4605454.043356791 ; 4.01968194309899E8 ; 6.466007059112263E8 ; 5.2530781278120834E10 ; 49503.45999999994
140 ; 4601852.541382984 ; 4.0197761533867E8 ; 6.51206159954583E8 ; 5.293274947243073E10 ; 49859.59999999994
141 ; 4599981.930718923 ; 4.019870104182397E8 ; 6.558080124959661E8 ; 5.33347270877694E10 ; 50215.73999999994
142 ; 4596554.0370375 ; 4.019963793639805E8 ; 6.60407994426685E8 ; 5.3736714098187645E10 ; 50571.87999999994
143 ; 4593875.033370545 ; 4.020057219919313E8 ; 6.650045484637225E8 ; 5.413871047755163E10 ; 50928.01999999994
144 ; 4589909.3132956 ; 4.020150381187955E8 ; 6.69598423497093E8 ; 5.454071619954356E10 ; 51284.15999999994
145 ; 4588711.205745529 ; 4.0202432756193805E8 ; 6.741883328103886E8 ; 5.494273123766235E10 ; 51640.29999999994
146 ; 4590750.921632426 ; 4.020335901393833E8 ; 6.787770440161341E8 ; 5.534475556522429E10 ; 51996.43999999994
147 ; 4587037.880618448 ; 4.020428256698131E8 ; 6.833677949377666E8 ; 5.574678915536367E10 ; 52352.579999999936
148 ; 4585831.070115968 ; 4.020520339725652E8 ; 6.87954832818385E8 ; 5.6148831981033485E10 ; 52708.719999999936
149 ; 4584005.016625342 ; 4.020612148676312E8 ; 6.925406638885009E8 ; 5.655088401500605E10 ; 53064.859999999935
150 ; 4582876.2447505435 ; 4.020703681756559E8 ; 6.971246689051262E8 ; 5.695294522987368E10 ; 53420.999999999935
151 ; 4582751.9663116485 ; 4.020794937179356E8 ; 7.017075451498767E8 ; 5.735501559804934E10 ; 53777.139999999934
152 ; 4580006.500677311 ; 4.020885913164174E8 ; 7.062902971161884E8 ; 5.775709509176727E10 ; 54133.27999999993
153 ; 4578754.540529277 ; 4.020976607936982E8 ; 7.108703036168658E8 ; 5.815918368308369E10 ; 54489.41999999993
154 ; 4578036.194368448 ; 4.0210670197302425E8 ; 7.15449058157395E8 ; 5.856128134387739E10 ; 54845.55999999993
155 ; 4577652.085270437 ; 4.021157146782905E8 ; 7.200270943517635E8 ; 5.896338804585041E10 ; 55201.69999999993
156 ; 4576963.439168747 ; 4.021246987340403E8 ; 7.246047464370339E8 ; 5.93655037605287E10 ; 55557.83999999993
157 ; 4575983.695534152 ; 4.0213365396546537E8 ; 7.291817098762026E8 ; 5.976762845926274E10 ; 55913.97999999993
158 ; 4573209.434465497 ; 4.0214258019840527E8 ; 7.337576935717367E8 ; 6.01697621132282E10 ; 56270.11999999993
159 ; 4574614.126740046 ; 4.0215147725934803E8 ; 7.383309030062022E8 ; 6.0571904693426605E10 ; 56626.25999999993
160 ; 4570792.528532501 ; 4.0216034497542965E8 ; 7.429055171329423E8 ; 6.097405617068595E10 ; 56982.39999999993
161 ; 4570153.3737801965 ; 4.021691831744351E8 ; 7.474763096614748E8 ; 6.1376216515661385E10 ; 57338.53999999993
162 ; 4567257.723535248 ; 4.02177991684798E8 ; 7.520464630352551E8 ; 6.177838569883582E10 ; 57694.67999999993
163 ; 4566395.508360094 ; 4.0218677033560157E8 ; 7.566137207587904E8 ; 6.218056369052062E10 ; 58050.81999999993
164 ; 4563520.325064048 ; 4.0219551895657897E8 ; 7.611801162671505E8 ; 6.2582750460856224E10 ; 58406.95999999993
165 ; 4564132.2110820515 ; 4.022042373781142E8 ; 7.657436365922146E8 ; 6.2984945979812805E10 ; 58763.099999999926
166 ; 4559782.129870309 ; 4.0221292543124247E8 ; 7.703077688032967E8 ; 6.338715021719092E10 ; 59119.239999999925
167 ; 4557727.244370245 ; 4.0222158294765127E8 ; 7.74867550933167E8 ; 6.378936314262216E10 ; 59475.379999999925
168 ; 4556625.042925847 ; 4.0223020975968146E8 ; 7.794252781775372E8 ; 6.419158472556982E10 ; 59831.519999999924
169 ; 4554304.807613889 ; 4.022388057003278E8 ; 7.83981903220463E8 ; 6.45938149353295E10 ; 60187.65999999992
170 ; 4553733.548569667 ; 4.022473706032404E8 ; 7.885362080280769E8 ; 6.499605374102982E10 ; 60543.79999999992
171 ; 4552841.883273526 ; 4.022559043027255E8 ; 7.930899415766466E8 ; 6.5398301111633064E10 ; 60899.93999999992
172 ; 4549503.568951731 ; 4.02264406633747E8 ; 7.9764278345992E8 ; 6.580055701593579E10 ; 61256.07999999992
173 ; 4547676.524552583 ; 4.0227287743192744E8 ; 8.021922870288718E8 ; 6.6202821422569534E10 ; 61612.21999999992
174 ; 4549364.748665293 ; 4.022813165335493E8 ; 8.067399635534244E8 ; 6.6605094300001465E10 ; 61968.35999999992
175 ; 4550563.952058757 ; 4.022897237755567E8 ; 8.112893283020897E8 ; 6.700737561653501E10 ; 62324.49999999992
176 ; 4550580.087651147 ; 4.022980989955562E8 ; 8.158398922541485E8 ; 6.740966534031057E10 ; 62680.63999999992
177 ; 4551300.420422417 ; 4.023064420318187E8 ; 8.203904723417996E8 ; 6.781196343930613E10 ; 63036.77999999992
