CSV File for the Network on Day 28
1 - Minute m 
2 - Power Consumed at minute m 
3 - Power Produced at minute m 
4 - Energy Consumed since the beginning of the day 
5 - Energy Produced since the beginning of the day 
6 - Energy Lost since the beginning of the day 
 
0 ; 4534464.584328539 ; 2.10507560199579E8 ; 0.0 ; 0.0 ; 0.0
1 ; 4539064.866437964 ; 2.108095511993116E8 ; 4534464.584328539 ; 2.10507560199579E8 ; 356.14
2 ; 4544249.357753627 ; 2.117293074770164E8 ; 9073529.450766504 ; 4.213171113988906E8 ; 712.28
3 ; 4547352.741600699 ; 2.1326688295340395E8 ; 1.361777880852013E7 ; 6.33046418875907E8 ; 1068.42
4 ; 4552812.071316358 ; 2.1542233402795434E8 ; 1.816513155012083E7 ; 8.463133018293109E8 ; 1424.56
5 ; 4555742.2744122585 ; 2.1819571799857354E8 ; 2.271794362143719E7 ; 1.0617356358572652E9 ; 1780.6999999999998
6 ; 4561912.169393131 ; 2.215870908942055E8 ; 2.7273685895849448E7 ; 1.2799313538558388E9 ; 2136.8399999999997
7 ; 4565243.314637149 ; 2.255965047756887E8 ; 3.1835598065242577E7 ; 1.5015184447500443E9 ; 2492.9799999999996
8 ; 4568216.519894044 ; 2.302240046889894E8 ; 3.640084137987973E7 ; 1.727114949525733E9 ; 2849.1199999999994
9 ; 4573073.845298349 ; 2.3546962559382206E8 ; 4.096905789977377E7 ; 1.9573389542147224E9 ; 3205.2599999999993
10 ; 4576018.768318279 ; 2.4133338969346523E8 ; 4.554213174507212E7 ; 2.1928085798085446E9 ; 3561.399999999999
11 ; 4578932.861472455 ; 2.478153046061678E8 ; 5.01181505133904E7 ; 2.43414196950201E9 ; 3917.539999999999
12 ; 4581177.686947123 ; 2.549153627136808E8 ; 5.469708337486286E7 ; 2.6819572741081777E9 ; 4273.679999999999
13 ; 4586639.863602407 ; 2.6263354181272572E8 ; 5.927826106180998E7 ; 2.9368726368218584E9 ; 4629.82
14 ; 4589598.361797693 ; 2.7096980694358826E8 ; 6.386490092541239E7 ; 3.199506178634584E9 ; 4985.96
15 ; 4593515.699406773 ; 2.799241130603019E8 ; 6.845449928721008E7 ; 3.470475985578172E9 ; 5342.1
16 ; 4596500.786365559 ; 2.894964081020284E8 ; 7.304801498661685E7 ; 3.750400098638474E9 ; 5698.240000000001
17 ; 4597131.69645748 ; 2.996866360398237E8 ; 7.76445157729824E7 ; 4.0398965067405024E9 ; 6054.380000000001
18 ; 4600335.16473306 ; 3.104947395757818E8 ; 8.224164746943988E7 ; 4.339583142780326E9 ; 6410.520000000001
19 ; 4602923.713178225 ; 3.219206623104227E8 ; 8.684198263417295E7 ; 4.650077882356108E9 ; 6766.660000000002
20 ; 4608601.867423496 ; 3.339643503230357E8 ; 9.144490634735116E7 ; 4.971998544666531E9 ; 7122.800000000002
21 ; 4610769.9897471145 ; 3.466257532027079E8 ; 9.605350821477465E7 ; 5.305962894989567E9 ; 7478.940000000002
22 ; 4614770.051943931 ; 3.599048246194947E8 ; 1.0066427820452178E8 ; 5.652588648192275E9 ; 7835.080000000003
23 ; 4617915.32680289 ; 3.738015225429244E8 ; 1.052790482564657E8 ; 6.0124934728117695E9 ; 8191.220000000003
24 ; 4620830.773695752 ; 3.88315809210534E8 ; 1.098969635832686E8 ; 6.386294995354694E9 ; 8547.360000000002
25 ; 4623550.134136278 ; 4.008237327296597E8 ; 1.1451779435696435E8 ; 6.774610804565228E9 ; 8903.500000000002
26 ; 4627624.50951427 ; 4.008323588609494E8 ; 1.1914134449110062E8 ; 7.1754345372948885E9 ; 9259.640000000001
27 ; 4631108.126705627 ; 4.008411997310772E8 ; 1.237689690006149E8 ; 7.576266896155838E9 ; 9615.78
28 ; 4633532.897020559 ; 4.00850231975739E8 ; 1.2840007712732053E8 ; 7.977108095886915E9 ; 9971.92
29 ; 4634489.063487795 ; 4.008594349834889E8 ; 1.3303361002434109E8 ; 8.377958327862654E9 ; 10328.06
30 ; 4637864.276457202 ; 4.00868790573592E8 ; 1.3766809908782887E8 ; 8.778817762846142E9 ; 10684.199999999999
31 ; 4641942.312383575 ; 4.008782827009418E8 ; 1.4230596336428607E8 ; 9.179686553419733E9 ; 11040.339999999998
32 ; 4643355.695034949 ; 4.008878971906004E8 ; 1.4694790567666963E8 ; 9.580564836120674E9 ; 11396.479999999998
33 ; 4647604.342072293 ; 4.008976215020009E8 ; 1.5159126137170458E8 ; 9.981452733311275E9 ; 11752.619999999997
34 ; 4646984.457042148 ; 4.0090744452137387E8 ; 1.562388657137769E8 ; 1.0382350354813276E10 ; 12108.759999999997
35 ; 4651451.264517073 ; 4.0091735638016933E8 ; 1.6088585017081904E8 ; 1.078325779933465E10 ; 12464.899999999996
36 ; 4654245.804386291 ; 4.009273482969079E8 ; 1.655373014353361E8 ; 1.1184175155714819E10 ; 12821.039999999995
37 ; 4656373.545810466 ; 4.0093741243982905E8 ; 1.701915472397224E8 ; 1.1585102504011726E10 ; 13177.179999999995
38 ; 4658212.8156744605 ; 4.009475418078096E8 ; 1.7484792078553286E8 ; 1.1986039916451555E10 ; 13533.319999999994
39 ; 4659778.0170696145 ; 4.009577301272088E8 ; 1.7950613360120732E8 ; 1.2386987458259365E10 ; 13889.459999999994
40 ; 4663301.442427196 ; 4.009679717625284E8 ; 1.8416591161827692E8 ; 1.2787945188386574E10 ; 14245.599999999993
41 ; 4664708.400716211 ; 4.0097826163901055E8 ; 1.888292130607041E8 ; 1.3188913160149101E10 ; 14601.739999999993
42 ; 4666289.333279826 ; 4.009885951755295E8 ; 1.9349392146142033E8 ; 1.3589891421788113E10 ; 14957.879999999992
43 ; 4667361.737645365 ; 4.0099896822634757E8 ; 1.9816021079470015E8 ; 1.3990880016963642E10 ; 15314.019999999991
44 ; 4669132.226368865 ; 4.0100937703049797E8 ; 2.028275725323455E8 ; 1.439187898518999E10 ; 15670.15999999999
45 ; 4669100.897474424 ; 4.010198181677321E8 ; 2.0749670475871438E8 ; 1.4792888362220488E10 ; 16026.29999999999
46 ; 4672745.311676192 ; 4.010302885201175E8 ; 2.1216580565618882E8 ; 1.519390818038822E10 ; 16382.43999999999
47 ; 4674796.634438835 ; 4.010407852385031E8 ; 2.1683855096786502E8 ; 1.5594938468908337E10 ; 16738.57999999999
48 ; 4675887.995384237 ; 4.010513057131845E8 ; 2.2151334760230386E8 ; 1.599597925414684E10 ; 17094.71999999999
49 ; 4676773.043862819 ; 4.0106184754819334E8 ; 2.261892355976881E8 ; 1.6397030559860023E10 ; 17450.85999999999
50 ; 4678725.881968485 ; 4.0107240853872216E8 ; 2.3086600864155093E8 ; 1.6798092407408216E10 ; 17806.99999999999
51 ; 4678062.841972805 ; 4.0108298665126455E8 ; 2.3554473452351943E8 ; 1.7199164815946938E10 ; 18163.13999999999
52 ; 4677444.240426416 ; 4.0109358000610995E8 ; 2.4022279736549222E8 ; 1.76002478025982E10 ; 18519.279999999988
53 ; 4678415.684450185 ; 4.0110418686188537E8 ; 2.4490024160591865E8 ; 1.8001341382604313E10 ; 18875.419999999987
54 ; 4678874.070063356 ; 4.0111480560187864E8 ; 2.4957865729036883E8 ; 1.8402445569466198E10 ; 19231.559999999987
55 ; 4683362.249638387 ; 4.01125434721915E8 ; 2.5425753136043218E8 ; 1.8803560375068077E10 ; 19587.699999999986
56 ; 4680323.187994836 ; 4.0113607281959045E8 ; 2.5894089361007056E8 ; 1.9204685809789993E10 ; 19943.839999999986
57 ; 4683409.10064937 ; 4.011467185846938E8 ; 2.636212167980654E8 ; 1.9605821882609585E10 ; 20299.979999999985
58 ; 4684089.324427167 ; 4.011573707906693E8 ; 2.6830462589871475E8 ; 2.000696860119428E10 ; 20656.119999999984
59 ; 4686247.297506035 ; 4.011680282869945E8 ; 2.729887152231419E8 ; 2.0408125971984947E10 ; 21012.259999999984
60 ; 4687647.140658301 ; 4.011786899923626E8 ; 2.7767496252064794E8 ; 2.0809294000271942E10 ; 21368.399999999983
61 ; 4687622.055901451 ; 4.011893548885751E8 ; 2.8236260966130626E8 ; 2.1210472690264305E10 ; 21724.539999999983
62 ; 4688604.198800813 ; 4.012000220150603E8 ; 2.8705023171720773E8 ; 2.161166204515288E10 ; 22080.679999999982
63 ; 4689366.09841114 ; 4.0121069046394694E8 ; 2.9173883591600853E8 ; 2.2012862067167942E10 ; 22436.81999999998
64 ; 4689909.1897880435 ; 4.012213593756285E8 ; 2.964282020144197E8 ; 2.241407275763189E10 ; 22792.95999999998
65 ; 4689469.137326131 ; 4.012320279347636E8 ; 3.011181112042077E8 ; 2.281529411700752E10 ; 23149.09999999998
66 ; 4690460.619741348 ; 4.012426953666645E8 ; 3.0580758034153384E8 ; 2.3216526144942284E10 ; 23505.23999999998
67 ; 4689418.803209111 ; 4.012533609340306E8 ; 3.1049804096127516E8 ; 2.361776884030895E10 ; 23861.37999999998
68 ; 4691201.151994211 ; 4.012640239339897E8 ; 3.151874597644843E8 ; 2.401902220124298E10 ; 24217.51999999998
69 ; 4692597.866060638 ; 4.012746836954149E8 ; 3.198786609164785E8 ; 2.442028622517697E10 ; 24573.659999999978
70 ; 4693644.892159757 ; 4.0128533957648754E8 ; 3.245712587825391E8 ; 2.4821560908872387E10 ; 24929.799999999977
71 ; 4691662.047815992 ; 4.0129599096248055E8 ; 3.292649036746989E8 ; 2.5222846248448875E10 ; 25285.939999999977
72 ; 4692045.479712062 ; 4.0130663726374006E8 ; 3.3395656572251487E8 ; 2.5624142239411354E10 ; 25642.079999999976
73 ; 4692348.034260185 ; 4.0131727791384476E8 ; 3.3864861120222694E8 ; 2.6025448876675095E10 ; 25998.219999999976
74 ; 4691954.558941498 ; 4.0132791236792594E8 ; 3.4334095923648715E8 ; 2.642676615458894E10 ; 26354.359999999975
75 ; 4692620.257542266 ; 4.0133854010113114E8 ; 3.4803291379542863E8 ; 2.6828094066956867E10 ; 26710.499999999975
76 ; 4692692.979588712 ; 4.013491606072186E8 ; 3.527255340529709E8 ; 2.7229432607058E10 ; 27066.639999999974
77 ; 4692555.035907948 ; 4.013597733972696E8 ; 3.574182270325596E8 ; 2.763078176766522E10 ; 27422.779999999973
78 ; 4690617.135892915 ; 4.013703779985066E8 ; 3.621107820684675E8 ; 2.803214154106249E10 ; 27778.919999999973
79 ; 4691797.026691538 ; 4.013809739532087E8 ; 3.668013992043604E8 ; 2.8433511919060997E10 ; 28135.059999999972
80 ; 4691228.588525902 ; 4.013915608177141E8 ; 3.71493196231052E8 ; 2.8834892893014206E10 ; 28491.19999999997
81 ; 4693640.600522761 ; 4.0140213816150296E8 ; 3.761844248195779E8 ; 2.923628445383192E10 ; 28847.33999999997
82 ; 4693081.619279567 ; 4.014127055663512E8 ; 3.808780654201006E8 ; 2.9637686591993423E10 ; 29203.47999999997
83 ; 4693400.918920738 ; 4.014232626255513E8 ; 3.855711470393802E8 ; 3.0039099297559776E10 ; 29559.61999999997
84 ; 4692043.293313373 ; 4.0143380894319296E8 ; 3.9026454795830095E8 ; 3.044052256018533E10 ; 29915.75999999997
85 ; 4693039.6534976745 ; 4.01444344133498E8 ; 3.9495659125161433E8 ; 3.084195636912852E10 ; 30271.89999999997
86 ; 4691316.932764357 ; 4.014548678202057E8 ; 3.99649630905112E8 ; 3.124340071326202E10 ; 30628.039999999968
87 ; 4691312.261452343 ; 4.0146537963600373E8 ; 4.043409478378764E8 ; 3.1644855581082226E10 ; 30984.179999999968
88 ; 4692626.678927163 ; 4.014758792220012E8 ; 4.090322600993287E8 ; 3.204632096071823E10 ; 31340.319999999967
89 ; 4690080.534765401 ; 4.014863662272396E8 ; 4.137248867782559E8 ; 3.244779683994023E10 ; 31696.459999999966
90 ; 4689819.405187417 ; 4.0149684030823976E8 ; 4.184149673130213E8 ; 3.2849283206167473E10 ; 32052.599999999966
91 ; 4689651.976586108 ; 4.0150730112858E8 ; 4.2310478671820873E8 ; 3.325078004647571E10 ; 32408.739999999965
92 ; 4689846.317123008 ; 4.015177483585049E8 ; 4.2779443869479483E8 ; 3.365228734760429E10 ; 32764.879999999965
93 ; 4690307.917519656 ; 4.0152818167456114E8 ; 4.324842850119178E8 ; 3.4053805095962795E10 ; 33121.01999999997
94 ; 4686396.618315935 ; 4.0153860075925833E8 ; 4.3717459292943746E8 ; 3.445533327763736E10 ; 33477.15999999997
95 ; 4688004.540665009 ; 4.0154900530075324E8 ; 4.418609895477534E8 ; 3.485687187839662E10 ; 33833.29999999997
96 ; 4684181.000895447 ; 4.0155939499255514E8 ; 4.465489940884184E8 ; 3.525842088369737E10 ; 34189.439999999966
97 ; 4683377.052103471 ; 4.015697695332514E8 ; 4.5123317508931386E8 ; 3.5659980278689926E10 ; 34545.579999999965
98 ; 4685606.472490441 ; 4.015801286262505E8 ; 4.559165521414173E8 ; 3.6061550048223175E10 ; 34901.719999999965
99 ; 4683858.499279335 ; 4.015904719795431E8 ; 4.6060215861390775E8 ; 3.646313017684943E10 ; 35257.859999999964
100 ; 4681728.815536322 ; 4.016007993054773E8 ; 4.652860171131871E8 ; 3.686472064882897E10 ; 35613.99999999996
101 ; 4678970.13471676 ; 4.016111103205498E8 ; 4.699677459287234E8 ; 3.726632144813445E10 ; 35970.13999999996
102 ; 4681131.068600487 ; 4.016214047452092E8 ; 4.7464671606344014E8 ; 3.7667932558455E10 ; 36326.27999999996
103 ; 4677497.567021923 ; 4.0163168230367273E8 ; 4.793278471320406E8 ; 3.806955396320021E10 ; 36682.41999999996
104 ; 4678716.323407265 ; 4.0164194272375405E8 ; 4.840053446990625E8 ; 3.847118564550388E10 ; 37038.55999999996
105 ; 4676729.425031798 ; 4.0165218573670155E8 ; 4.886840610224698E8 ; 3.887282758822764E10 ; 37394.69999999996
106 ; 4676084.607069155 ; 4.016624110770474E8 ; 4.933607904475016E8 ; 3.927447977396434E10 ; 37750.83999999996
107 ; 4675627.529695656 ; 4.0167261848246515E8 ; 4.9803687505457073E8 ; 3.967614218504139E10 ; 38106.97999999996
108 ; 4671339.89904666 ; 4.016828076936361E8 ; 5.0271250258426636E8 ; 4.007781480352386E10 ; 38463.11999999996
109 ; 4671251.896605225 ; 4.0169297845412433E8 ; 5.07383842483313E8 ; 4.047949761121749E10 ; 38819.25999999996
110 ; 4671093.15913501 ; 4.017031305102582E8 ; 5.120550943799183E8 ; 4.0881190589671616E10 ; 39175.39999999996
111 ; 4670894.5558704445 ; 4.017132636110199E8 ; 5.1672618753905326E8 ; 4.128289372018188E10 ; 39531.53999999996
112 ; 4668931.548912906 ; 4.017233775079409E8 ; 5.2139708209492373E8 ; 4.16846069837929E10 ; 39887.67999999996
113 ; 4666545.073639193 ; 4.017334719550035E8 ; 5.260660136438366E8 ; 4.208633036130084E10 ; 40243.819999999956
114 ; 4664935.911188083 ; 4.0174354670854867E8 ; 5.3073255871747583E8 ; 4.2488063833255844E10 ; 40599.959999999955
115 ; 4664357.761924379 ; 4.017536015271885E8 ; 5.353974946286639E8 ; 4.288980737996439E10 ; 40956.099999999955
116 ; 4660932.249557975 ; 4.01763636171724E8 ; 5.400618523905883E8 ; 4.3291560981491585E10 ; 41312.239999999954
117 ; 4662874.051520181 ; 4.017736504050679E8 ; 5.447227846401463E8 ; 4.369332461766331E10 ; 41668.379999999954
118 ; 4656464.802178314 ; 4.0178364399217117E8 ; 5.493856586916665E8 ; 4.4095098268068375E10 ; 42024.51999999995
119 ; 4656147.323054399 ; 4.0179361669995403E8 ; 5.540421234938447E8 ; 4.449688191206055E10 ; 42380.65999999995
120 ; 4655323.483344071 ; 4.0180356829724085E8 ; 5.586982708168992E8 ; 4.48986755287605E10 ; 42736.79999999995
121 ; 4653610.388068346 ; 4.0181349855469877E8 ; 5.633535943002433E8 ; 4.530047909705774E10 ; 43092.93999999995
122 ; 4652453.4879906215 ; 4.018234072447791E8 ; 5.680072046883116E8 ; 4.5702292595612434E10 ; 43449.07999999995
123 ; 4648722.631340155 ; 4.0183329414166284E8 ; 5.726596581763022E8 ; 4.6104116002857216E10 ; 43805.21999999995
124 ; 4646342.385102078 ; 4.018431590212085E8 ; 5.773083808076423E8 ; 4.650594929699888E10 ; 44161.35999999995
125 ; 4642205.530657607 ; 4.01853001660903E8 ; 5.819547231927444E8 ; 4.690779245602009E10 ; 44517.49999999995
126 ; 4640351.090829363 ; 4.018628218398149E8 ; 5.86596928723402E8 ; 4.730964545768099E10 ; 44873.63999999995
127 ; 4635762.883194641 ; 4.018726193385513E8 ; 5.912372798142314E8 ; 4.7711508279520805E10 ; 45229.77999999995
128 ; 4633860.9007287035 ; 4.018823939392152E8 ; 5.958730426974261E8 ; 4.811338089885936E10 ; 45585.91999999995
129 ; 4630868.083851818 ; 4.0189214542536676E8 ; 6.005069035981548E8 ; 4.851526329279858E10 ; 45942.05999999995
130 ; 4629037.440035951 ; 4.019018735819858E8 ; 6.051377716820066E8 ; 4.8917155438223946E10 ; 46298.199999999946
131 ; 4623253.979906475 ; 4.0191157819543654E8 ; 6.097668091220425E8 ; 4.931905731180593E10 ; 46654.339999999946
132 ; 4623329.384938165 ; 4.0192125905343413E8 ; 6.14390063101949E8 ; 4.9720968890001366E10 ; 47010.479999999945
133 ; 4619609.139226367 ; 4.0193091594501287E8 ; 6.190133924868871E8 ; 5.01228901490548E10 ; 47366.619999999944
134 ; 4616842.151506022 ; 4.0194054866049635E8 ; 6.236330016261134E8 ; 5.052482106499982E10 ; 47722.759999999944
135 ; 4614066.999602441 ; 4.019501569914689E8 ; 6.282498437776195E8 ; 5.092676161366032E10 ; 48078.89999999994
136 ; 4613430.687940427 ; 4.0195974073074853E8 ; 6.328639107772219E8 ; 5.132871177065179E10 ; 48435.03999999994
137 ; 4610354.046088985 ; 4.019692996723615E8 ; 6.374773414651624E8 ; 5.173067151138254E10 ; 48791.17999999994
138 ; 4607288.5720805805 ; 4.019788336115182E8 ; 6.420876955112513E8 ; 5.21326408110549E10 ; 49147.31999999994
139 ; 4604755.274941853 ; 4.019883423445897E8 ; 6.46694984083332E8 ; 5.253461964466642E10 ; 49503.45999999994
140 ; 4601863.759282602 ; 4.019978256690865E8 ; 6.512997393582737E8 ; 5.293660798701101E10 ; 49859.59999999994
141 ; 4598984.084941781 ; 4.0200728338363755E8 ; 6.559016031175563E8 ; 5.33386058126801E10 ; 50215.73999999994
142 ; 4597295.484405055 ; 4.0201671528797066E8 ; 6.605005872024981E8 ; 5.3740613096063736E10 ; 50571.87999999994
143 ; 4592882.125481577 ; 4.020261211828941E8 ; 6.650978826869031E8 ; 5.414262981135171E10 ; 50928.01999999994
144 ; 4589109.20013727 ; 4.0203550087027884E8 ; 6.696907648123847E8 ; 5.45446559325346E10 ; 51284.15999999994
145 ; 4587157.345061937 ; 4.0204485415304184E8 ; 6.74279874012522E8 ; 5.494669143340488E10 ; 51640.29999999994
146 ; 4587606.256467601 ; 4.0205418083513016E8 ; 6.788670313575839E8 ; 5.534873628755792E10 ; 51996.43999999994
147 ; 4585984.9270881 ; 4.020634807215062E8 ; 6.834546376140515E8 ; 5.575079046839305E10 ; 52352.579999999936
148 ; 4585264.864606144 ; 4.0207275361813307E8 ; 6.880406225411396E8 ; 5.6152853949114555E10 ; 52708.719999999936
149 ; 4583038.760140324 ; 4.0208199933196133E8 ; 6.926258874057457E8 ; 5.655492670273269E10 ; 53064.859999999935
150 ; 4581700.065250678 ; 4.020912176709162E8 ; 6.97208926165886E8 ; 5.695700870206465E10 ; 53420.999999999935
151 ; 4579291.4088162575 ; 4.021004084438852E8 ; 7.017906262311367E8 ; 5.7359099919735565E10 ; 53777.139999999934
152 ; 4579188.564661003 ; 4.0210957146070695E8 ; 7.063699176399529E8 ; 5.776120032817945E10 ; 54133.27999999993
153 ; 4576313.415442375 ; 4.0211870653216004E8 ; 7.109491062046139E8 ; 5.816330989964016E10 ; 54489.41999999993
154 ; 4576460.058092964 ; 4.0212781346995276E8 ; 7.155254196200563E8 ; 5.856542860617232E10 ; 54845.55999999993
155 ; 4575283.31535052 ; 4.0213689208671343E8 ; 7.201018796781492E8 ; 5.896755641964227E10 ; 55201.69999999993
156 ; 4575860.411342066 ; 4.021459421959811E8 ; 7.246771629934998E8 ; 5.936969331172899E10 ; 55557.83999999993
157 ; 4574351.30518126 ; 4.021549636121966E8 ; 7.292530234048418E8 ; 5.977183925392497E10 ; 55913.97999999993
158 ; 4572818.837084863 ; 4.021639561506946E8 ; 7.33827374710023E8 ; 6.017399421753717E10 ; 56270.11999999993
159 ; 4571198.785227395 ; 4.0217291962769556E8 ; 7.384001935471079E8 ; 6.057615817368787E10 ; 56626.25999999993
160 ; 4567985.3964747535 ; 4.021818538602983E8 ; 7.429713923323354E8 ; 6.097833109331556E10 ; 56982.39999999993
161 ; 4569118.168667519 ; 4.021907586664729E8 ; 7.475393777288101E8 ; 6.138051294717586E10 ; 57338.53999999993
162 ; 4564781.534957035 ; 4.0219963386505455E8 ; 7.521084958974776E8 ; 6.178270370584233E10 ; 57694.67999999993
163 ; 4563974.604789699 ; 4.022084792757368E8 ; 7.566732774324347E8 ; 6.218490333970738E10 ; 58050.81999999993
164 ; 4561462.1863281755 ; 4.02217294719066E8 ; 7.612372520372244E8 ; 6.2587111818983116E10 ; 58406.95999999993
165 ; 4560247.008194366 ; 4.022260800164355E8 ; 7.657987142235526E8 ; 6.298932911370218E10 ; 58763.099999999926
166 ; 4558267.743275963 ; 4.022348349900807E8 ; 7.703589612317469E8 ; 6.339155519371861E10 ; 59119.239999999925
167 ; 4555162.281906409 ; 4.0224355946307373E8 ; 7.749172289750229E8 ; 6.3793790028708694E10 ; 59475.379999999925
168 ; 4554565.1116495365 ; 4.022522532593194E8 ; 7.794723912569293E8 ; 6.419603358817177E10 ; 59831.519999999924
169 ; 4552302.475827065 ; 4.0226091620355034E8 ; 7.840269563685788E8 ; 6.459828584143109E10 ; 60187.65999999992
170 ; 4551057.090259748 ; 4.0226954812132305E8 ; 7.885792588444059E8 ; 6.500054675763464E10 ; 60543.79999999992
171 ; 4547501.384356704 ; 4.022781488390144E8 ; 7.931303159346657E8 ; 6.540281630575597E10 ; 60899.93999999992
172 ; 4547204.781657458 ; 4.022867181838175E8 ; 7.976778173190224E8 ; 6.580509445459498E10 ; 61256.07999999992
173 ; 4543687.4467201345 ; 4.022952559837389E8 ; 8.022250221006799E8 ; 6.620738117277879E10 ; 61612.21999999992
174 ; 4546867.448417325 ; 4.023037620675951E8 ; 8.067687095474E8 ; 6.6609676428762535E10 ; 61968.35999999992
175 ; 4545300.342405109 ; 4.023122362650098E8 ; 8.113155769958173E8 ; 6.701198019083013E10 ; 62324.49999999992
176 ; 4548386.847160862 ; 4.023206784064112E8 ; 8.158608773382224E8 ; 6.741429242709514E10 ; 62680.63999999992
177 ; 4546670.872107201 ; 4.0232908832302916E8 ; 8.204092641853832E8 ; 6.781661310550155E10 ; 63036.77999999992
