CSV File for the Network on Day 225
1 - Minute m 
2 - Power Consumed at minute m 
3 - Power Produced at minute m 
4 - Energy Consumed since the beginning of the day 
5 - Energy Produced since the beginning of the day 
6 - Energy Lost since the beginning of the day 
 
0 ; 516501.72624552314 ; 2.104893784993819E8 ; 0.0 ; 0.0 ; 0.0
1 ; 523266.84458227054 ; 2.1079067793920445E8 ; 516501.72624552314 ; 2.104893784993819E8 ; 356.14
2 ; 525730.4064521412 ; 2.117097339162752E8 ; 1039768.5708277937 ; 4.2128005643858635E8 ; 712.28
3 ; 530805.9779491188 ; 2.1324661348447526E8 ; 1565498.977279935 ; 6.329897903548615E8 ; 1068.42
4 ; 536801.1992409661 ; 2.1540138996613777E8 ; 2096304.9552290537 ; 8.462364038393368E8 ; 1424.56
5 ; 541721.5747517842 ; 2.1817414128405666E8 ; 2633106.15447002 ; 1.0616377938054745E9 ; 1780.6999999999998
6 ; 546984.6784932035 ; 2.215649470850293E8 ; 3174827.729221804 ; 1.2798119350895312E9 ; 2136.8399999999997
7 ; 551050.4842077213 ; 2.2557388452956104E8 ; 3721812.4077150077 ; 1.5013768821745605E9 ; 2492.9799999999996
8 ; 556502.1095432516 ; 2.302010229080752E8 ; 4272862.891922729 ; 1.7269507667041216E9 ; 2849.1199999999994
9 ; 562118.1311576607 ; 2.3544641765535158E8 ; 4829365.001465981 ; 1.957151789612197E9 ; 3205.2599999999993
10 ; 563829.4456529221 ; 2.4131010474743897E8 ; 5391483.132623642 ; 2.1925982072675486E9 ; 3561.399999999999
11 ; 566161.531237989 ; 2.477920966676973E8 ; 5955312.578276563 ; 2.4339083120149875E9 ; 3917.539999999999
12 ; 570379.7764216629 ; 2.5489238093276662E8 ; 6521474.109514552 ; 2.681700408682685E9 ; 4273.679999999999
13 ; 575704.9401734791 ; 2.6261092156659806E8 ; 7091853.8859362155 ; 2.9365927896154513E9 ; 4629.82
14 ; 578800.304744092 ; 2.7094766313441205E8 ; 7667558.826109694 ; 3.1992037111820493E9 ; 4985.96
15 ; 581827.8660664959 ; 2.79902536345785E8 ; 8246359.130853786 ; 3.4701513743164616E9 ; 5342.1
16 ; 585636.4226248821 ; 2.8947546404021186E8 ; 8828186.996920282 ; 3.7500539106622467E9 ; 5698.240000000001
17 ; 590782.7130349842 ; 2.99666366570895E8 ; 9413823.419545164 ; 4.0395293747024584E9 ; 6054.380000000001
18 ; 592857.0721596268 ; 3.1047516601504064E8 ; 1.0004606132580148E7 ; 4.339195741273354E9 ; 6410.520000000001
19 ; 596822.9995028026 ; 3.2190178905031556E8 ; 1.0597463204739776E7 ; 4.649670907288394E9 ; 6766.660000000002
20 ; 601775.4587208285 ; 3.339461686228386E8 ; 1.1194286204242578E7 ; 4.97157269633871E9 ; 7122.800000000002
21 ; 605211.2767723873 ; 3.466082446688786E8 ; 1.1796061662963407E7 ; 5.305518864961549E9 ; 7478.940000000002
22 ; 608510.6481331094 ; 3.5988796417659706E8 ; 1.2401272939735794E7 ; 5.652127109630427E9 ; 7835.080000000003
23 ; 611754.2528982538 ; 3.737852808362801E8 ; 1.3009783587868905E7 ; 6.012015073807024E9 ; 8191.220000000003
24 ; 617119.7085461725 ; 3.8830015446748775E8 ; 1.3621537840767158E7 ; 6.385800354643304E9 ; 8547.360000000002
25 ; 620678.7322815314 ; 4.008086321490375E8 ; 1.4238657549313331E7 ; 6.774100509110791E9 ; 8903.500000000002
26 ; 626049.8696264429 ; 4.008177796145966E8 ; 1.4859336281594863E7 ; 7.174909141259829E9 ; 9259.640000000001
27 ; 628677.3840434742 ; 4.0082710965942085E8 ; 1.5485386151221305E7 ; 7.575726920874425E9 ; 9615.78
28 ; 633324.9967410298 ; 4.0083660004954696E8 ; 1.6114063535264779E7 ; 7.976554030533846E9 ; 9971.92
29 ; 634967.1131592758 ; 4.008462315915625E8 ; 1.674738853200581E7 ; 8.377390630583393E9 ; 10328.06
30 ; 638245.4139386235 ; 4.0085598768382704E8 ; 1.7382355645165086E7 ; 8.778236862174955E9 ; 10684.199999999999
31 ; 643714.8448441019 ; 4.00865853931327E8 ; 1.802060105910371E7 ; 9.179092849858782E9 ; 11040.339999999998
32 ; 646925.4256995999 ; 4.0087581781771445E8 ; 1.866431590394781E7 ; 9.57995870379011E9 ; 11396.479999999998
33 ; 651912.7319726893 ; 4.0088586842741287E8 ; 1.931124132964741E7 ; 9.980834521607824E9 ; 11752.619999999997
34 ; 654572.1394153155 ; 4.0089599621081436E8 ; 1.99631540616201E7 ; 1.0381720390035236E10 ; 12108.759999999997
35 ; 655826.0277995953 ; 4.0090619278614914E8 ; 2.0617726201035418E7 ; 1.078261638624605E10 ; 12464.899999999996
36 ; 660295.1815079101 ; 4.009164507723339E8 ; 2.1273552228835013E7 ; 1.11835225790322E10 ; 12821.039999999995
37 ; 663266.1931149177 ; 4.0092676364786804E8 ; 2.1933847410342924E7 ; 1.1584439029804533E10 ; 13177.179999999995
38 ; 668085.7572516087 ; 4.0093712563157034E8 ; 2.2597113603457842E7 ; 1.19853657934524E10 ; 13533.319999999994
39 ; 670353.8277642708 ; 4.0094753158160615E8 ; 2.326519936070945E7 ; 1.2386302919083971E10 ; 13889.459999999994
40 ; 672476.166248281 ; 4.0095797690982604E8 ; 2.3935553188473724E7 ; 1.2787250450665577E10 ; 14245.599999999993
41 ; 673152.938576018 ; 4.0096845750893044E8 ; 2.4608029354722004E7 ; 1.3188208427575403E10 ; 14601.739999999993
42 ; 677645.135287192 ; 4.0097896969038856E8 ; 2.528118229329802E7 ; 1.3589176885084333E10 ; 14957.879999999992
43 ; 680181.6661252567 ; 4.009895101313897E8 ; 2.5958827428585213E7 ; 1.3990155854774721E10 ; 15314.019999999991
44 ; 683874.2813137653 ; 4.010000758293936E8 ; 2.663900909471047E7 ; 1.439114536490611E10 ; 15670.15999999999
45 ; 687741.1544162077 ; 4.010106640630882E8 ; 2.7322883376024235E7 ; 1.4792145440735504E10 ; 16026.29999999999
46 ; 688550.77424993 ; 4.010212723587612E8 ; 2.8010624530440442E7 ; 1.5193156104798592E10 ; 16382.43999999999
47 ; 692135.9765190384 ; 4.010318984612587E8 ; 2.8699175304690372E7 ; 1.5594177377157352E10 ; 16738.57999999999
48 ; 696852.16107476 ; 4.010425403088383E8 ; 2.939131128120941E7 ; 1.599520927561861E10 ; 17094.71999999999
49 ; 697007.5066153577 ; 4.0105319601133686E8 ; 3.008816344228417E7 ; 1.6396251815927448E10 ; 17450.85999999999
50 ; 697765.9098574624 ; 4.010638638311684E8 ; 3.078517094889953E7 ; 1.6797305011938786E10 ; 17806.99999999999
51 ; 701290.4351437592 ; 4.01074542166743E8 ; 3.1482936858756993E7 ; 1.7198368875769955E10 ; 18163.13999999999
52 ; 703229.6639626494 ; 4.010852295379619E8 ; 3.218422729390075E7 ; 1.75994434179367E10 ; 18519.279999999988
53 ; 704743.9669920637 ; 4.0109592457349944E8 ; 3.28874569578634E7 ; 1.800052864747466E10 ; 18875.419999999987
54 ; 706939.28380562 ; 4.011066259996239E8 ; 3.359220092485546E7 ; 1.8401624572048157E10 ; 19231.559999999987
55 ; 709524.2860240781 ; 4.011173326303494E8 ; 3.429914020866109E7 ; 1.880273119804778E10 ; 19587.699999999986
56 ; 711209.3514636813 ; 4.011280433587407E8 ; 3.5008664494685166E7 ; 1.9203848530678127E10 ; 19943.839999999986
57 ; 712623.0439672484 ; 4.011387571492189E8 ; 3.571987384614885E7 ; 1.960497657403687E10 ; 20299.979999999985
58 ; 716752.591733048 ; 4.0114947303073835E8 ; 3.6432496890116096E7 ; 2.000611533118609E10 ; 20656.119999999984
59 ; 719475.1607245707 ; 4.011601900907237E8 ; 3.714924948184914E7 ; 2.0407264804216827E10 ; 21012.259999999984
60 ; 717906.870774274 ; 4.011709074696722E8 ; 3.7868724642573714E7 ; 2.0808424994307552E10 ; 21368.399999999983
61 ; 723241.5391290007 ; 4.011816243563374E8 ; 3.858663151334799E7 ; 2.1209595901777225E10 ; 21724.539999999983
62 ; 725365.8000386535 ; 4.01192339983425E8 ; 3.9309873052476995E7 ; 2.1610777526133564E10 ; 22080.679999999982
63 ; 728355.6239751751 ; 4.01203053623738E8 ; 4.0035238852515645E7 ; 2.201196986611699E10 ; 22436.81999999998
64 ; 730219.7347735583 ; 4.0121376458671904E8 ; 4.076359447649082E7 ; 2.2413172919740726E10 ; 22792.95999999998
65 ; 731304.4757145537 ; 4.0122447221534336E8 ; 4.149381421126438E7 ; 2.2814386684327446E10 ; 23149.09999999998
66 ; 737291.5049550054 ; 4.0123517588332117E8 ; 4.2225118686978936E7 ; 2.321561115654279E10 ; 23505.23999999998
67 ; 738271.737143758 ; 4.0124587499257606E8 ; 4.2962410191933945E7 ; 2.361684633242611E10 ; 23861.37999999998
68 ; 738878.7774208884 ; 4.012565689709674E8 ; 4.37006819290777E7 ; 2.4018092207418686E10 ; 24217.51999999998
69 ; 742348.0549642807 ; 4.0126725727023005E8 ; 4.4439560706498586E7 ; 2.4419348776389652E10 ; 24573.659999999978
70 ; 741822.262153057 ; 4.012779393641083E8 ; 4.518190876146287E7 ; 2.482061603365988E10 ; 24929.799999999977
71 ; 743407.9026274099 ; 4.0128861474666345E8 ; 4.592373102361593E7 ; 2.522189397302399E10 ; 25285.939999999977
72 ; 744941.3704848893 ; 4.012992829307347E8 ; 4.6667138926243335E7 ; 2.5623182587770653E10 ; 25642.079999999976
73 ; 748542.9666537427 ; 4.013099434465411E8 ; 4.741208029672822E7 ; 2.602448187070139E10 ; 25998.219999999976
74 ; 748021.2933507065 ; 4.013205958404061E8 ; 4.8160623263381965E7 ; 2.642579181414793E10 ; 26354.359999999975
75 ; 751353.8410993846 ; 4.0133123967359555E8 ; 4.890864455673267E7 ; 2.6827112409988335E10 ; 26710.499999999975
76 ; 751449.5741752156 ; 4.013418745212549E8 ; 4.965999839783205E7 ; 2.722844364966193E10 ; 27066.639999999974
77 ; 753491.224499846 ; 4.01352499971439E8 ; 5.041144797200727E7 ; 2.7629785524183186E10 ; 27422.779999999973
78 ; 755102.9090486412 ; 4.0136311562422246E8 ; 5.116493919650711E7 ; 2.8031138024154625E10 ; 27778.919999999973
79 ; 756541.4716928609 ; 4.013737210908846E8 ; 5.192004210555575E7 ; 2.8432501139778847E10 ; 28135.059999999972
80 ; 757641.081380237 ; 4.01384315993162E8 ; 5.267658357724861E7 ; 2.883387486086973E10 ; 28491.19999999997
81 ; 761307.1275949124 ; 4.0139489996256065E8 ; 5.343422465862885E7 ; 2.9235259176862892E10 ; 28847.33999999997
82 ; 761922.8077679155 ; 4.0140547263972485E8 ; 5.419553178622376E7 ; 2.9636654076825455E10 ; 29203.47999999997
83 ; 762907.2118139451 ; 4.014160336738546E8 ; 5.4957454593991674E7 ; 3.003805954946518E10 ; 29559.61999999997
84 ; 764811.3418484613 ; 4.0142658272216964E8 ; 5.5720361805805616E7 ; 3.0439475583139034E10 ; 29915.75999999997
85 ; 767878.8235590282 ; 4.014371194494152E8 ; 5.648517314765408E7 ; 3.0840902165861202E10 ; 30271.89999999997
86 ; 768166.6597797186 ; 4.014476435274043E8 ; 5.725305197121311E7 ; 3.1242339285310616E10 ; 30628.039999999968
87 ; 769988.1981659832 ; 4.014581546345965E8 ; 5.802121863099283E7 ; 3.164378692883802E10 ; 30984.179999999968
88 ; 771727.3801392479 ; 4.014686524557064E8 ; 5.879120682915881E7 ; 3.204524508347262E10 ; 31340.319999999967
89 ; 773555.522420383 ; 4.014791366813425E8 ; 5.956293420929806E7 ; 3.2446713735928326E10 ; 31696.459999999966
90 ; 773737.0503485426 ; 4.014896070076717E8 ; 6.033648973171844E7 ; 3.284819287260967E10 ; 32052.599999999966
91 ; 775245.5517072543 ; 4.015000631361084E8 ; 6.1110226782066986E7 ; 3.324968247961734E10 ; 32408.739999999965
92 ; 776695.5477903144 ; 4.01510504773026E8 ; 6.188547233377424E7 ; 3.365118254275345E10 ; 32764.879999999965
93 ; 778782.4607888503 ; 4.0152093162948847E8 ; 6.266216788156455E7 ; 3.4052693047526474E10 ; 33121.01999999997
94 ; 779832.6194019944 ; 4.01531343421001E8 ; 6.34409503423534E7 ; 3.445421397915596E10 ; 33477.15999999997
95 ; 780311.0253353006 ; 4.015417398672782E8 ; 6.4220782961755395E7 ; 3.485574532257696E10 ; 33833.29999999997
96 ; 783267.0098448272 ; 4.015521206920279E8 ; 6.500109398709069E7 ; 3.525728706244424E10 ; 34189.439999999966
97 ; 782124.8266458494 ; 4.015624856227496E8 ; 6.578436099693552E7 ; 3.565883918313626E10 ; 34545.579999999965
98 ; 782235.6776058078 ; 4.0157283439054716E8 ; 6.656648582358137E7 ; 3.606040166875901E10 ; 34901.719999999965
99 ; 784202.8109356692 ; 4.0158316672995305E8 ; 6.734872150118718E7 ; 3.646197450314956E10 ; 35257.859999999964
100 ; 785965.1215001076 ; 4.0159348237876534E8 ; 6.813292431212285E7 ; 3.686355766987951E10 ; 35613.99999999996
101 ; 788720.7887954442 ; 4.0160378107789457E8 ; 6.891888943362296E7 ; 3.726515115225828E10 ; 35970.13999999996
102 ; 787990.9113592859 ; 4.016140625712205E8 ; 6.97076102224184E7 ; 3.7666754933336174E10 ; 36326.27999999996
103 ; 788975.559395539 ; 4.016243266054592E8 ; 7.049560113377768E7 ; 3.8068368995907394E10 ; 36682.41999999996
104 ; 790493.4971165286 ; 4.016345729300373E8 ; 7.128457669317321E7 ; 3.8469993322512856E10 ; 37038.55999999996
105 ; 793268.2225765665 ; 4.0164480129697496E8 ; 7.207507019028975E7 ; 3.8871627895442894E10 ; 37394.69999999996
106 ; 794227.1200271251 ; 4.016550114607761E8 ; 7.286833841286632E7 ; 3.927327269673987E10 ; 37750.83999999996
107 ; 794013.1181837579 ; 4.016652031783254E8 ; 7.366256553289345E7 ; 3.9674927708200645E10 ; 38106.97999999996
108 ; 793664.15518665 ; 4.01675376208792E8 ; 7.445657865107721E7 ; 4.007659291137897E10 ; 38463.11999999996
109 ; 793485.6757100183 ; 4.01685530313538E8 ; 7.525024280626386E7 ; 4.047826828758776E10 ; 38819.25999999996
110 ; 794699.1878068519 ; 4.016956652560346E8 ; 7.604372848197389E7 ; 4.08799538179013E10 ; 39175.39999999996
111 ; 797887.0605988337 ; 4.0170578080178106E8 ; 7.683842766978073E7 ; 4.128164948315733E10 ; 39531.53999999996
112 ; 798851.7591899552 ; 4.0171587671823007E8 ; 7.763631473037957E7 ; 4.1683355263959114E10 ; 39887.67999999996
113 ; 799849.5883334099 ; 4.017259527747171E8 ; 7.843516648956951E7 ; 4.2085071140677345E10 ; 40243.819999999956
114 ; 801624.21712938 ; 4.017360087423936E8 ; 7.923501607790293E7 ; 4.2486797093452065E10 ; 40599.959999999955
115 ; 801288.1270523363 ; 4.0174604439416504E8 ; 8.003664029503231E7 ; 4.288853310219446E10 ; 40956.099999999955
116 ; 801632.8293670183 ; 4.017560595046316E8 ; 8.083792842208464E7 ; 4.329027914658862E10 ; 41312.239999999954
117 ; 802353.2930756249 ; 4.017660538500326E8 ; 8.163956125145166E7 ; 4.3692035206093254E10 ; 41668.379999999954
118 ; 801366.0757885348 ; 4.01776027208195E8 ; 8.244191454452728E7 ; 4.409380125994328E10 ; 42024.51999999995
119 ; 803905.8903303391 ; 4.017859793584832E8 ; 8.32432806203158E7 ; 4.449557728715148E10 ; 42380.65999999995
120 ; 805184.5674980535 ; 4.017959100817536E8 ; 8.404718651064615E7 ; 4.4897363266509964E10 ; 42736.79999999995
121 ; 805621.3327417184 ; 4.018058191603104E8 ; 8.485237107814421E7 ; 4.529915917659172E10 ; 43092.93999999995
122 ; 807840.3076674256 ; 4.018157063778641E8 ; 8.565799241088593E7 ; 4.570096499575203E10 ; 43449.07999999995
123 ; 806998.6960264151 ; 4.018255715194932E8 ; 8.646583271855335E7 ; 4.610278070212989E10 ; 43805.21999999995
124 ; 805501.6115599194 ; 4.0183541437160707E8 ; 8.727283141457976E7 ; 4.650460627364938E10 ; 44161.35999999995
125 ; 805349.3469421524 ; 4.018452347219112E8 ; 8.807833302613968E7 ; 4.690644168802099E10 ; 44517.49999999995
126 ; 804537.9684059919 ; 4.0185503235937494E8 ; 8.888368237308183E7 ; 4.73082869227429E10 ; 44873.63999999995
127 ; 803412.4428937372 ; 4.0186480707420015E8 ; 8.968822034148782E7 ; 4.771014195510227E10 ; 45229.77999999995
128 ; 805011.5227585989 ; 4.018745586577922E8 ; 9.049163278438157E7 ; 4.8112006762176476E10 ; 45585.91999999995
129 ; 803359.0029490616 ; 4.018842869027325E8 ; 9.129664430714017E7 ; 4.851388132083427E10 ; 45942.05999999995
130 ; 804528.4113553042 ; 4.018939916027521E8 ; 9.210000331008923E7 ; 4.8915765607737E10 ; 46298.199999999946
131 ; 803919.1891534656 ; 4.019036725527077E8 ; 9.290453172144453E7 ; 4.931765959933975E10 ; 46654.339999999946
132 ; 804087.7719367928 ; 4.019133295485577E8 ; 9.3708450910598E7 ; 4.9719563271892456E10 ; 47010.479999999945
133 ; 804737.9537162214 ; 4.0192296238734084E8 ; 9.451253868253478E7 ; 5.012147660144102E10 ; 47366.619999999944
134 ; 803777.7753049806 ; 4.019325708671551E8 ; 9.5317276636251E7 ; 5.052339956382836E10 ; 47722.759999999944
135 ; 802372.8806650706 ; 4.01942154787138E8 ; 9.612105441155598E7 ; 5.092533213469552E10 ; 48078.89999999994
136 ; 804883.6286406418 ; 4.019517139474485E8 ; 9.692342729222104E7 ; 5.132727428948266E10 ; 48435.03999999994
137 ; 806826.1614562296 ; 4.0196124814924896E8 ; 9.772831092086168E7 ; 5.172922600343011E10 ; 48791.17999999994
138 ; 803379.242953992 ; 4.019707571946889E8 ; 9.85351370823179E7 ; 5.213118725157935E10 ; 49147.31999999994
139 ; 804641.8004184623 ; 4.0198024088688934E8 ; 9.933851632527189E7 ; 5.253315800877404E10 ; 49503.45999999994
140 ; 802631.5938437796 ; 4.0198969902992785E8 ; 1.0014315812569036E8 ; 5.293513824966093E10 ; 49859.59999999994
141 ; 806544.5137117659 ; 4.0199913142882454E8 ; 1.0094578971953413E8 ; 5.333712794869086E10 ; 50215.73999999994
142 ; 803656.1886040912 ; 4.020085378895292E8 ; 1.017523342332459E8 ; 5.373912708011968E10 ; 50571.87999999994
143 ; 803884.9718559327 ; 4.020179182189085E8 ; 1.0255599042184998E8 ; 5.414113561800921E10 ; 50928.01999999994
144 ; 802463.8023513547 ; 4.020272722247343E8 ; 1.0335987539370592E8 ; 5.454315353622812E10 ; 51284.15999999994
145 ; 803578.0238747321 ; 4.0203659971567273E8 ; 1.0416233919605727E8 ; 5.494518080845285E10 ; 51640.29999999994
146 ; 804524.308435048 ; 4.020459005012734E8 ; 1.04965917219932E8 ; 5.5347217408168526E10 ; 51996.43999999994
147 ; 809263.7605175612 ; 4.0205517439195955E8 ; 1.0577044152836706E8 ; 5.57492633086698E10 ; 52352.579999999936
148 ; 809846.3378725486 ; 4.0206442119901896E8 ; 1.0657970528888462E8 ; 5.615131848306176E10 ; 52708.719999999936
149 ; 812123.4540460154 ; 4.0207364073459494E8 ; 1.0738955162675717E8 ; 5.655338290426078E10 ; 53064.859999999935
150 ; 813534.4613039831 ; 4.020828328116781E8 ; 1.0820167508080319E8 ; 5.695545654499538E10 ; 53420.999999999935
151 ; 814114.2961209518 ; 4.0209199724409837E8 ; 1.0901520954210716E8 ; 5.735753937780705E10 ; 53777.139999999934
152 ; 816507.6396480335 ; 4.021011338465179E8 ; 1.0982932383822812E8 ; 5.775963137505115E10 ; 54133.27999999993
153 ; 817272.5022542676 ; 4.0211024243442404E8 ; 1.1064583147787616E8 ; 5.816173250889767E10 ; 54489.41999999993
154 ; 820144.900279231 ; 4.0211932282412255E8 ; 1.1146310398013042E8 ; 5.856384275133209E10 ; 54845.55999999993
155 ; 823098.525773135 ; 4.021283748327321E8 ; 1.1228324888040964E8 ; 5.896596207415621E10 ; 55201.69999999993
156 ; 822873.6522020104 ; 4.0213739827817786E8 ; 1.1310634740618278E8 ; 5.9368090448988945E10 ; 55557.83999999993
157 ; 825468.8024167123 ; 4.0214639297918653E8 ; 1.1392922105838479E8 ; 5.977022784726712E10 ; 55913.97999999993
158 ; 828547.9144051331 ; 4.0215535875528103E8 ; 1.147546898608015E8 ; 6.017237424024631E10 ; 56270.11999999993
159 ; 829677.1752449436 ; 4.0216429542677605E8 ; 1.1558323777520664E8 ; 6.057452959900159E10 ; 56626.25999999993
160 ; 831886.577871005 ; 4.021732028147733E8 ; 1.1641291495045158E8 ; 6.097669389442836E10 ; 56982.39999999993
161 ; 834504.152016695 ; 4.0218208074115765E8 ; 1.1724480152832259E8 ; 6.137886709724313E10 ; 57338.53999999993
162 ; 834549.1713197335 ; 4.021909290285932E8 ; 1.1807930568033929E8 ; 6.178104917798429E10 ; 57694.67999999993
163 ; 836734.7745515661 ; 4.021997475005195E8 ; 1.1891385485165903E8 ; 6.2183240107012886E10 ; 58050.81999999993
164 ; 838053.7107444704 ; 4.022085359811486E8 ; 1.197505896262106E8 ; 6.2585439854513405E10 ; 58406.95999999993
165 ; 838469.5464068362 ; 4.022172942954614E8 ; 1.2058864333695507E8 ; 6.298764839049455E10 ; 58763.099999999926
166 ; 839534.0130487188 ; 4.022260222692054E8 ; 1.214271128833619E8 ; 6.3389865684790016E10 ; 59119.239999999925
167 ; 840346.236015842 ; 4.022347197288916E8 ; 1.2226664689641063E8 ; 6.379209170705922E10 ; 59475.379999999925
168 ; 841981.1611145567 ; 4.022433865017923E8 ; 1.2310699313242647E8 ; 6.419432642678811E10 ; 59831.519999999924
169 ; 843996.1764337483 ; 4.022520224159387E8 ; 1.2394897429354103E8 ; 6.45965698132899E10 ; 60187.65999999992
170 ; 845388.2286586206 ; 4.022606273001189E8 ; 1.2479297046997477E8 ; 6.499882183570584E10 ; 60543.79999999992
171 ; 847775.5114750395 ; 4.0226920098387617E8 ; 1.2563835869863339E8 ; 6.540108246300596E10 ; 60899.93999999992
172 ; 847635.6154118697 ; 4.0227774329750705E8 ; 1.2648613421010843E8 ; 6.580335166398984E10 ; 61256.07999999992
173 ; 850856.0936334556 ; 4.0228625407205987E8 ; 1.2733376982552029E8 ; 6.6205629407287346E10 ; 61612.21999999992
174 ; 853291.3498631684 ; 4.0229473313933337E8 ; 1.2818462591915375E8 ; 6.6607915661359406E10 ; 61968.35999999992
175 ; 853099.2171826256 ; 4.0230318033187574E8 ; 1.2903791726901692E8 ; 6.701021039449874E10 ; 62324.49999999992
176 ; 856952.5532903891 ; 4.0231159548298305E8 ; 1.2989101648619954E8 ; 6.741251357483062E10 ; 62680.63999999992
177 ; 859399.4990228092 ; 4.023199784266987E8 ; 1.3074796903948992E8 ; 6.781482517031361E10 ; 63036.77999999992
