CSV File for the Network on Day 38
1 - Minute m 
2 - Power Consumed at minute m 
3 - Power Produced at minute m 
4 - Energy Consumed since the beginning of the day 
5 - Energy Produced since the beginning of the day 
6 - Energy Lost since the beginning of the day 
 
0 ; 4533703.268530854 ; 2.1063911371846002E8 ; 0.0 ; 0.0 ; 0.0
1 ; 4539338.159996172 ; 2.1094357568515223E8 ; 4533703.268530854 ; 2.1063911371846002E8 ; 356.14
2 ; 4543800.425858887 ; 2.1186571277741176E8 ; 9073041.428527027 ; 4.2158268940361226E8 ; 712.28
3 ; 4547448.220433377 ; 2.1340553984637922E8 ; 1.3616841854385914E7 ; 6.334484021810241E8 ; 1068.42
4 ; 4553065.300192356 ; 2.1556307077679497E8 ; 1.816429007481929E7 ; 8.468539420274034E8 ; 1424.56
5 ; 4558451.648168978 ; 2.1833831824153727E8 ; 2.2717355375011645E7 ; 1.0624170128041983E9 ; 1780.6999999999998
6 ; 4560289.793271283 ; 2.217312934602319E8 ; 2.7275807023180623E7 ; 1.2807553310457356E9 ; 2136.8399999999997
7 ; 4565583.299396394 ; 2.2574200597147495E8 ; 3.1836096816451907E7 ; 1.5024866245059676E9 ; 2492.9799999999996
8 ; 4568632.702727298 ; 2.303704634286356E8 ; 3.64016801158483E7 ; 1.7282286304774425E9 ; 2849.1199999999994
9 ; 4572341.788466631 ; 2.356166714289201E8 ; 4.09703128185756E7 ; 1.958599093906078E9 ; 3205.2599999999993
10 ; 4576433.562399133 ; 2.414806333843214E8 ; 4.554265460704223E7 ; 2.194215765334998E9 ; 3561.399999999999
11 ; 4576818.583296591 ; 2.4796235044126582E8 ; 5.0119088169441365E7 ; 2.4356963987193193E9 ; 3917.539999999999
12 ; 4581913.977177769 ; 2.55061821453327E8 ; 5.4695906752737954E7 ; 2.6836587491605854E9 ; 4273.679999999999
13 ; 4585135.380634137 ; 2.6277904300851196E8 ; 5.927782072991572E7 ; 2.9387205706139126E9 ; 4629.82
14 ; 4588228.133353982 ; 2.7111400950961465E8 ; 6.386295611054986E7 ; 3.2014996136224246E9 ; 4985.96
15 ; 4591898.940821137 ; 2.8006671330326563E8 ; 6.845118424390385E7 ; 3.472613623132039E9 ; 5342.1
16 ; 4595130.720571487 ; 2.8963714485086906E8 ; 7.304308318472499E7 ; 3.7526803364353046E9 ; 5698.240000000001
17 ; 4597540.88675563 ; 2.99825292932799E8 ; 7.763821390529647E7 ; 4.042317481286174E9 ; 6054.380000000001
18 ; 4601762.053236888 ; 3.106311448761772E8 ; 8.22357547920521E7 ; 4.342142774218973E9 ; 6410.520000000001
19 ; 4604190.257066395 ; 3.2205468679626334E8 ; 8.683751684528899E7 ; 4.65277391909515E9 ; 6766.660000000002
20 ; 4607876.272033569 ; 3.3409590384191674E8 ; 9.144170710235539E7 ; 4.974828605891414E9 ; 7122.800000000002
21 ; 4610108.39327116 ; 3.4675478043658465E8 ; 9.604958337438896E7 ; 5.308924509733331E9 ; 7478.940000000002
22 ; 4614578.233274789 ; 3.6003130050766337E8 ; 1.0065969176766013E8 ; 5.655679290169915E9 ; 7835.080000000003
23 ; 4616615.400490468 ; 3.739254476986889E8 ; 1.0527427000093491E8 ; 6.015710590677579E9 ; 8191.220000000003
24 ; 4620388.369171049 ; 3.884372055604674E8 ; 1.0989088540142538E8 ; 6.389636038376267E9 ; 8547.360000000002
25 ; 4624522.691978592 ; 4.009426395151882E8 ; 1.1451127377059643E8 ; 6.778073243936735E9 ; 8903.500000000002
26 ; 4627447.865258259 ; 4.009488290736329E8 ; 1.1913579646257502E8 ; 7.179015883451923E9 ; 9259.640000000001
27 ; 4629602.586178457 ; 4.00955297004267E8 ; 1.2376324432783328E8 ; 7.579964712525557E9 ; 9615.78
28 ; 4632194.209890382 ; 4.009620279230128E8 ; 1.2839284691401173E8 ; 7.980920009529823E9 ; 9971.92
29 ; 4635710.4789929 ; 4.009690069546107E8 ; 1.3302504112390211E8 ; 8.381882037452836E9 ; 10328.06
30 ; 4638064.462214628 ; 4.0097621978822964E8 ; 1.3766075160289502E8 ; 8.782851044407446E9 ; 10684.199999999999
31 ; 4641307.545638151 ; 4.009836527161183E8 ; 1.4229881606510964E8 ; 9.183827264195675E9 ; 11040.339999999998
32 ; 4641402.6690098215 ; 4.009912926576491E8 ; 1.4694012361074778E8 ; 9.584810916911793E9 ; 11396.479999999998
33 ; 4645794.462075986 ; 4.0099912717104554E8 ; 1.5158152627975762E8 ; 9.985802209569443E9 ; 11752.619999999997
34 ; 4648389.392693122 ; 4.010071444549407E8 ; 1.562273207418336E8 ; 1.0386801336740488E10 ; 12108.759999999997
35 ; 4650104.403355848 ; 4.01015333341726E8 ; 1.6087571013452673E8 ; 1.0787808481195429E10 ; 12464.899999999996
36 ; 4654146.165035688 ; 4.0102368328443086E8 ; 1.6552581453788257E8 ; 1.1188823814537155E10 ; 12821.039999999995
37 ; 4655938.336431322 ; 4.0103218433865124E8 ; 1.7017996070291826E8 ; 1.1589847497821587E10 ; 13177.179999999995
38 ; 4659411.902315091 ; 4.0104082714082396E8 ; 1.748358990393496E8 ; 1.1990879682160238E10 ; 13533.319999999994
39 ; 4659402.794786897 ; 4.010496028839364E8 ; 1.7949531094166467E8 ; 1.2391920509301062E10 ; 13889.459999999994
40 ; 4661861.586586387 ; 4.0105850329157466E8 ; 1.8415471373645157E8 ; 1.2792970112184998E10 ; 14245.599999999993
41 ; 4661610.947255235 ; 4.0106752059104216E8 ; 1.8881657532303795E8 ; 1.3194028615476572E10 ; 14601.739999999993
42 ; 4665529.067645948 ; 4.01076647486136E8 ; 1.9347818627029318E8 ; 1.3595096136067614E10 ; 14957.879999999992
43 ; 4666794.061636985 ; 4.0108587713004243E8 ; 1.981437153379391E8 ; 1.399617278355375E10 ; 15314.019999999991
44 ; 4665930.159662424 ; 4.0109520309870434E8 ; 2.028105093995761E8 ; 1.4397258660683792E10 ; 15670.15999999999
45 ; 4669883.412026042 ; 4.0110461936492705E8 ; 2.0747643955923852E8 ; 1.4798353863782497E10 ; 16026.29999999999
46 ; 4670360.968175653 ; 4.011141202734158E8 ; 2.1214632297126457E8 ; 1.5199458483147425E10 ; 16382.43999999999
47 ; 4673419.972520422 ; 4.0112370051687455E8 ; 2.1681668393944022E8 ; 1.5600572603420841E10 ; 16738.57999999999
48 ; 4673414.705907019 ; 4.0113335511325514E8 ; 2.2149010391196063E8 ; 1.6001696303937716E10 ; 17094.71999999999
49 ; 4677515.37967949 ; 4.0114307938420063E8 ; 2.2616351861786765E8 ; 1.640282965905097E10 ; 17450.85999999999
50 ; 4677358.258887896 ; 4.0115286893470234E8 ; 2.3084103399754715E8 ; 1.6803972738435171E10 ; 17806.99999999999
51 ; 4678127.043239394 ; 4.011627196339648E8 ; 2.3551839225643504E8 ; 1.7205125607369873E10 ; 18163.13999999999
52 ; 4678365.249455381 ; 4.0117262759745574E8 ; 2.4019651929967442E8 ; 1.7606288327003838E10 ; 18519.279999999988
53 ; 4679356.299658147 ; 4.01182589170108E8 ; 2.448748845491298E8 ; 1.800746095460129E10 ; 18875.419999999987
54 ; 4679797.756770958 ; 4.0119260091062725E8 ; 2.4955424084878796E8 ; 1.84086435437714E10 ; 19231.559999999987
55 ; 4681168.5663506305 ; 4.0120265957685745E8 ; 2.5423403860555893E8 ; 1.8809836144682026E10 ; 19587.699999999986
56 ; 4681739.948646497 ; 4.012127621121502E8 ; 2.5891520717190957E8 ; 1.9211038804258884E10 ; 19943.839999999986
57 ; 4681794.424160654 ; 4.0122290563268244E8 ; 2.6359694712055606E8 ; 1.9612251566371033E10 ; 20299.979999999985
58 ; 4684067.491049636 ; 4.012330874156664E8 ; 2.6827874154471672E8 ; 2.0013474472003716E10 ; 20656.119999999984
59 ; 4684591.726408589 ; 4.0124330488839674E8 ; 2.7296280903576636E8 ; 2.041470755941938E10 ; 21012.259999999984
60 ; 4685045.694024088 ; 4.01253555618081E8 ; 2.7764740076217496E8 ; 2.0815950864307777E10 ; 21368.399999999983
61 ; 4687692.592021977 ; 4.0126383730239975E8 ; 2.8233244645619905E8 ; 2.1217204419925858E10 ; 21724.539999999983
62 ; 4687578.987149335 ; 4.01274147760748E8 ; 2.8702013904822105E8 ; 2.1618468257228256E10 ; 22080.679999999982
63 ; 4689666.978170791 ; 4.012844849261086E8 ; 2.917077180353704E8 ; 2.2019742404989006E10 ; 22436.81999999998
64 ; 4688095.109131732 ; 4.012948468375133E8 ; 2.963973850135412E8 ; 2.2421026889915115E10 ; 22792.95999999998
65 ; 4690528.734122118 ; 4.0130523163304865E8 ; 3.01085480122673E8 ; 2.282232173675263E10 ; 23149.09999999998
66 ; 4689402.555296951 ; 4.0131563754336685E8 ; 3.057760088567951E8 ; 2.3223626968385677E10 ; 23505.23999999998
67 ; 4692547.84585379 ; 4.013260628856642E8 ; 3.1046541141209203E8 ; 2.3624942605929043E10 ; 23861.37999999998
68 ; 4692854.100020711 ; 4.013365060580928E8 ; 3.1515795925794584E8 ; 2.402626866881471E10 ; 24217.51999999998
69 ; 4693863.462852475 ; 4.0134696553457165E8 ; 3.1985081335796654E8 ; 2.4427605174872803E10 ; 24573.659999999978
70 ; 4691059.987996936 ; 4.013574398599696E8 ; 3.24544676820819E8 ; 2.4828952140407375E10 ; 24929.799999999977
71 ; 4691996.466034853 ; 4.013679276456297E8 ; 3.2923573680881596E8 ; 2.5230309580267345E10 ; 25285.939999999977
72 ; 4691905.035667404 ; 4.0137842756521046E8 ; 3.339277332748508E8 ; 2.5631677507912975E10 ; 25642.079999999976
73 ; 4692406.673262402 ; 4.013889383508205E8 ; 3.386196383105182E8 ; 2.6033055935478188E10 ; 25998.219999999976
74 ; 4691182.003858706 ; 4.013994587894233E8 ; 3.433120449837806E8 ; 2.6434444873829006E10 ; 26354.359999999975
75 ; 4691360.827636334 ; 4.014099877194928E8 ; 3.480032269876393E8 ; 2.683584433261843E10 ; 26710.499999999975
76 ; 4691226.517415122 ; 4.014205240279001E8 ; 3.5269458781527567E8 ; 2.7237254320337925E10 ; 27066.639999999974
77 ; 4693020.244346383 ; 4.014310666470151E8 ; 3.573858143326908E8 ; 2.7638674844365826E10 ; 27422.779999999973
78 ; 4689038.682663743 ; 4.014416145520055E8 ; 3.6207883457703716E8 ; 2.804010591101284E10 ; 27778.919999999973
79 ; 4691586.467555386 ; 4.0145216675832033E8 ; 3.667678732597009E8 ; 2.8441547525564846E10 ; 28135.059999999972
80 ; 4691084.916853921 ; 4.014627223193419E8 ; 3.714594597272563E8 ; 2.8842999692323166E10 ; 28491.19999999997
81 ; 4693710.124949729 ; 4.014732803241967E8 ; 3.761505446441102E8 ; 2.924446241464251E10 ; 28847.33999999997
82 ; 4691611.213805812 ; 4.014838398957108E8 ; 3.8084425476905996E8 ; 2.9645935694966705E10 ; 29203.47999999997
83 ; 4692731.069327077 ; 4.0149440018850124E8 ; 3.8553586598286575E8 ; 3.0047419534862415E10 ; 29559.61999999997
84 ; 4691654.624627541 ; 4.015049603871918E8 ; 3.902285970521928E8 ; 3.0448913935050915E10 ; 29915.75999999997
85 ; 4691222.508050462 ; 4.015155197047459E8 ; 3.9492025167682034E8 ; 3.0850418895438107E10 ; 30271.89999999997
86 ; 4690263.105588268 ; 4.015260773809066E8 ; 3.996114741848708E8 ; 3.1251934415142853E10 ; 30628.039999999968
87 ; 4689033.523851869 ; 4.0153663268073714E8 ; 4.0430173729045904E8 ; 3.1653460492523758E10 ; 30984.179999999968
88 ; 4691188.930819791 ; 4.015471848932545E8 ; 4.089907708143109E8 ; 3.2054997125204494E10 ; 31340.319999999967
89 ; 4690857.712482355 ; 4.01557733330149E8 ; 4.136819597451307E8 ; 3.2456544310097748E10 ; 31696.459999999966
90 ; 4688679.83078402 ; 4.015682773245847E8 ; 4.1837281745761305E8 ; 3.28581020434279E10 ; 32052.599999999966
91 ; 4687821.092443128 ; 4.0157881623007435E8 ; 4.230614972883971E8 ; 3.3259670320752483E10 ; 32408.739999999965
92 ; 4685113.780062708 ; 4.015893494194237E8 ; 4.277493183808402E8 ; 3.366124913698256E10 ; 32764.879999999965
93 ; 4687745.139090259 ; 4.015998762837411E8 ; 4.324344321609029E8 ; 3.406283848640198E10 ; 33121.01999999997
94 ; 4686444.115709312 ; 4.016103962315069E8 ; 4.3712217729999316E8 ; 3.446443836268572E10 ; 33477.15999999997
95 ; 4685627.282032191 ; 4.016209086876994E8 ; 4.4180862141570246E8 ; 3.486604875891723E10 ; 33833.29999999997
96 ; 4683575.605261772 ; 4.01631413092973E8 ; 4.4649424869773465E8 ; 3.526766966760493E10 ; 34189.439999999966
97 ; 4683758.018433678 ; 4.016419089028858E8 ; 4.511778243029964E8 ; 3.56693010806979E10 ; 34545.579999999965
98 ; 4683063.650126231 ; 4.016523955871718E8 ; 4.558615823214301E8 ; 3.6070942989600784E10 ; 34901.719999999965
99 ; 4682419.685916869 ; 4.01662872629057E8 ; 4.605446459715563E8 ; 3.647259538518796E10 ; 35257.859999999964
100 ; 4679937.562852284 ; 4.016733395246144E8 ; 4.6522706565747315E8 ; 3.687425825781702E10 ; 35613.99999999996
101 ; 4679710.542967414 ; 4.016837957821568E8 ; 4.699070032203254E8 ; 3.727593159734163E10 ; 35970.13999999996
102 ; 4680670.661401559 ; 4.0169424092166394E8 ; 4.7458671376329285E8 ; 3.767761539312379E10 ; 36326.27999999996
103 ; 4680232.2258573035 ; 4.017046744742427E8 ; 4.792673844246944E8 ; 3.807930963404545E10 ; 36682.41999999996
104 ; 4676921.838409291 ; 4.017150959816175E8 ; 4.8394761665055174E8 ; 3.848101430851969E10 ; 37038.55999999996
105 ; 4675051.245728726 ; 4.0172550499564946E8 ; 4.8862453848896104E8 ; 3.888272940450131E10 ; 37394.69999999996
106 ; 4674523.370942068 ; 4.0173590107788193E8 ; 4.932995897346898E8 ; 3.928445490949696E10 ; 37750.83999999996
107 ; 4673731.408469815 ; 4.017462837991118E8 ; 4.979741131056318E8 ; 3.9686190810574844E10 ; 38106.97999999996
108 ; 4674202.735203847 ; 4.017566527389838E8 ; 5.026478445141016E8 ; 4.0087937094373955E10 ; 38463.11999999996
109 ; 4671564.317797444 ; 4.01767007485607E8 ; 5.073220472493055E8 ; 4.048969374711294E10 ; 38819.25999999996
110 ; 4671205.559439983 ; 4.0177734763519216E8 ; 5.119936115671029E8 ; 4.089146075459854E10 ; 39175.39999999996
111 ; 4669032.57886521 ; 4.0178767279170847E8 ; 5.1666481712654287E8 ; 4.1293238102233734E10 ; 39531.53999999996
112 ; 4666157.425244609 ; 4.017979825665587E8 ; 5.213338497054081E8 ; 4.1695025775025444E10 ; 39887.67999999996
113 ; 4666579.259679086 ; 4.018082765782714E8 ; 5.260000071306527E8 ; 4.2096823757592E10 ; 40243.819999999956
114 ; 4665064.082352719 ; 4.0181855445220923E8 ; 5.306665863903318E8 ; 4.249863203417027E10 ; 40599.959999999955
115 ; 4662814.037593996 ; 4.0182881582029283E8 ; 5.353316504726845E8 ; 4.290045058862248E10 ; 40956.099999999955
116 ; 4659892.650302106 ; 4.018390603207388E8 ; 5.399944645102785E8 ; 4.330227940444277E10 ; 41312.239999999954
117 ; 4660040.137122836 ; 4.01849287597811E8 ; 5.446543571605805E8 ; 4.370411846476351E10 ; 41668.379999999954
118 ; 4657570.274227797 ; 4.018594973015851E8 ; 5.493143972977034E8 ; 4.410596775236132E10 ; 42024.51999999995
119 ; 4656385.122323451 ; 4.018696890877243E8 ; 5.539719675719311E8 ; 4.45078272496629E10 ; 42380.65999999995
120 ; 4652866.764019827 ; 4.018798626172675E8 ; 5.586283526942545E8 ; 4.4909696938750626E10 ; 42736.79999999995
121 ; 4653818.006101173 ; 4.0189001755642664E8 ; 5.632812194582744E8 ; 4.531157680136789E10 ; 43092.93999999995
122 ; 4652315.123425987 ; 4.0190015357639563E8 ; 5.679350374643755E8 ; 4.571346681892432E10 ; 43449.07999999995
123 ; 4647535.880256154 ; 4.019102703531678E8 ; 5.725873525878015E8 ; 4.611536697250071E10 ; 43805.21999999995
124 ; 4646006.556742714 ; 4.019203675673623E8 ; 5.772348884680576E8 ; 4.6517277242853874E10 ; 44161.35999999995
125 ; 4642223.258474574 ; 4.019304449040598E8 ; 5.818808950248003E8 ; 4.6919197610421234E10 ; 44517.49999999995
126 ; 4640559.958083909 ; 4.0194050205264527E8 ; 5.865231182832749E8 ; 4.7321128055325294E10 ; 44873.63999999995
127 ; 4636107.81754377 ; 4.019505387066588E8 ; 5.911636782413588E8 ; 4.772306855737794E10 ; 45229.77999999995
128 ; 4633359.269966536 ; 4.019605545636536E8 ; 5.957997860589025E8 ; 4.8125019096084595E10 ; 45585.91999999995
129 ; 4631616.607833567 ; 4.0197054932506067E8 ; 6.00433145328869E8 ; 4.852697965064825E10 ; 45942.05999999995
130 ; 4627501.194410434 ; 4.0198052269606E8 ; 6.050647619367026E8 ; 4.8928950199973305E10 ; 46298.199999999946
131 ; 4626327.430640017 ; 4.019904743854575E8 ; 6.09692263131113E8 ; 4.9330930722669365E10 ; 46654.339999999946
132 ; 4621642.884121408 ; 4.020004041055683E8 ; 6.14318590561753E8 ; 4.9732921197054825E10 ; 47010.479999999945
133 ; 4617990.280081935 ; 4.020103115721048E8 ; 6.189402334458745E8 ; 5.013492160116039E10 ; 47366.619999999944
134 ; 4616570.05231818 ; 4.0202019650407076E8 ; 6.235582237259564E8 ; 5.05369319127325E10 ; 47722.759999999944
135 ; 4612709.103807041 ; 4.0203005862365913E8 ; 6.281747937782747E8 ; 5.093895210923657E10 ; 48078.89999999994
136 ; 4613723.092091785 ; 4.02039897656156E8 ; 6.327875028820817E8 ; 5.134098216786023E10 ; 48435.03999999994
137 ; 4609501.211570398 ; 4.0204971332984746E8 ; 6.374012259741735E8 ; 5.174302206551639E10 ; 48791.17999999994
138 ; 4606527.178982569 ; 4.0205950537593174E8 ; 6.420107271857439E8 ; 5.214507177884624E10 ; 49147.31999999994
139 ; 4602659.7057619365 ; 4.02069273528435E8 ; 6.466172543647265E8 ; 5.254713128422217E10 ; 49503.45999999994
140 ; 4600408.031227091 ; 4.020790175241308E8 ; 6.512199140704885E8 ; 5.29492005577506E10 ; 49859.59999999994
141 ; 4597379.10031719 ; 4.020887371024631E8 ; 6.558203221017156E8 ; 5.3351279575274734E10 ; 50215.73999999994
142 ; 4594891.671202284 ; 4.0209843200547314E8 ; 6.604177012020328E8 ; 5.37533683123772E10 ; 50571.87999999994
143 ; 4593074.232618279 ; 4.0210810197772884E8 ; 6.650125928732351E8 ; 5.415546674438267E10 ; 50928.01999999994
144 ; 4589106.320274083 ; 4.0211774676625824E8 ; 6.696056671058534E8 ; 5.45575748463604E10 ; 51284.15999999994
145 ; 4587721.396409536 ; 4.021273661204848E8 ; 6.741947734261276E8 ; 5.4959692593126656E10 ; 51640.29999999994
146 ; 4584996.652471339 ; 4.021369597921665E8 ; 6.787824948225371E8 ; 5.536181995924714E10 ; 51996.43999999994
147 ; 4585491.584083504 ; 4.0214652753533685E8 ; 6.833674914750084E8 ; 5.576395691903931E10 ; 52352.579999999936
148 ; 4583983.325063445 ; 4.021560691062491E8 ; 6.879529830590919E8 ; 5.6166103446574646E10 ; 52708.719999999936
149 ; 4583173.694219899 ; 4.021655842633222E8 ; 6.925369663841554E8 ; 5.656825951568089E10 ; 53064.859999999935
150 ; 4582786.972085265 ; 4.021750727670895E8 ; 6.971201400783753E8 ; 5.6970425099944214E10 ; 53420.999999999935
151 ; 4580115.515332727 ; 4.021845343801495E8 ; 7.017029270504606E8 ; 5.73726001727113E10 ; 53777.139999999934
152 ; 4578780.425000724 ; 4.021939688671192E8 ; 7.062830425657933E8 ; 5.777478470709145E10 ; 54133.27999999993
153 ; 4576667.4844149165 ; 4.0220337599458814E8 ; 7.10861822990794E8 ; 5.817697867595857E10 ; 54489.41999999993
154 ; 4577007.023054559 ; 4.0221275553107584E8 ; 7.154384904752089E8 ; 5.857918205195316E10 ; 54845.55999999993
155 ; 4573711.644513792 ; 4.022221072469905E8 ; 7.200154974982635E8 ; 5.898139480748424E10 ; 55201.69999999993
156 ; 4574136.742133616 ; 4.022314309145888E8 ; 7.245892091427773E8 ; 5.938361691473123E10 ; 55557.83999999993
157 ; 4571638.985627286 ; 4.022407263079383E8 ; 7.29163345884911E8 ; 5.978584834564582E10 ; 55913.97999999993
158 ; 4570085.427948459 ; 4.022499932028811E8 ; 7.337349848705382E8 ; 6.018808907195376E10 ; 56270.11999999993
159 ; 4569776.9755026605 ; 4.0225923137699884E8 ; 7.383050702984867E8 ; 6.059033906515664E10 ; 56626.25999999993
160 ; 4569905.723002869 ; 4.022684406095792E8 ; 7.428748472739893E8 ; 6.099259829653364E10 ; 56982.39999999993
161 ; 4568249.608047823 ; 4.02277620681584E8 ; 7.474447529969922E8 ; 6.139486673714322E10 ; 57338.53999999993
162 ; 4565519.090926811 ; 4.0228677137561834E8 ; 7.520130026050401E8 ; 6.179714435782481E10 ; 57694.67999999993
163 ; 4561393.5210852 ; 4.0229589247590137E8 ; 7.565785216959668E8 ; 6.2199431129200424E10 ; 58050.81999999993
164 ; 4562464.634524664 ; 4.023049837682377E8 ; 7.61139915217052E8 ; 6.260172702167632E10 ; 58406.95999999993
165 ; 4558099.422308761 ; 4.0231404503999066E8 ; 7.657023798515767E8 ; 6.300403200544456E10 ; 58763.099999999926
166 ; 4558943.4294342585 ; 4.023230760800561E8 ; 7.702604792738855E8 ; 6.340634605048455E10 ; 59119.239999999925
167 ; 4555173.035822808 ; 4.023320766788373E8 ; 7.748194227033198E8 ; 6.3808669126564606E10 ; 59475.379999999925
168 ; 4554631.408103907 ; 4.0234104662822163E8 ; 7.793745957391425E8 ; 6.421100120324345E10 ; 59831.519999999924
169 ; 4552465.556814736 ; 4.023499857215571E8 ; 7.839292271472465E8 ; 6.4613342249871666E10 ; 60187.65999999992
170 ; 4550325.390921687 ; 4.023588937536305E8 ; 7.884816927040613E8 ; 6.501569223559322E10 ; 60543.79999999992
171 ; 4548555.105294208 ; 4.0236777052064633E8 ; 7.93032018094983E8 ; 6.5418051129346855E10 ; 60899.93999999992
172 ; 4548311.445518539 ; 4.0237661582020664E8 ; 7.975805732002772E8 ; 6.58204188998675E10 ; 61256.07999999992
173 ; 4545362.912669201 ; 4.0238542945129126E8 ; 8.021288846457957E8 ; 6.6222795515687706E10 ; 61612.21999999992
174 ; 4546840.266807986 ; 4.023942112142395E8 ; 8.066742475584649E8 ; 6.6625180945139E10 ; 61968.35999999992
175 ; 4547608.029904319 ; 4.0240296091073203E8 ; 8.112210878252729E8 ; 6.702757515635324E10 ; 62324.49999999992
176 ; 4545076.943722946 ; 4.0241167834377396E8 ; 8.157686958551773E8 ; 6.742997811726397E10 ; 62680.63999999992
177 ; 4545208.933921076 ; 4.02420363317678E8 ; 8.203137727989002E8 ; 6.783238979560774E10 ; 63036.77999999992
