CSV File for the Network on Day 39
1 - Minute m 
2 - Power Consumed at minute m 
3 - Power Produced at minute m 
4 - Energy Consumed since the beginning of the day 
5 - Energy Produced since the beginning of the day 
6 - Energy Lost since the beginning of the day 
 
0 ; 4534464.14344549 ; 2.1065233215820712E8 ; 0.0 ; 0.0 ; 0.0
1 ; 4538927.914296404 ; 2.1095692173366898E8 ; 4534464.14344549 ; 2.1065233215820712E8 ; 356.14
2 ; 4542477.90416789 ; 2.1187917779581654E8 ; 9073392.057741895 ; 4.216092538918761E8 ; 712.28
3 ; 4546753.857668483 ; 2.1341911383093125E8 ; 1.3615869961909786E7 ; 6.334884316876926E8 ; 1068.42
4 ; 4551664.647438431 ; 2.1557674239523047E8 ; 1.8162623819578268E7 ; 8.469075455186238E8 ; 1424.56
5 ; 4556547.9235096 ; 2.183520749054755E8 ; 2.2714288467016697E7 ; 1.0624842879138544E9 ; 1780.6999999999998
6 ; 4561162.210959573 ; 2.217451214350381E8 ; 2.7270836390526295E7 ; 1.2808363628193297E9 ; 2136.8399999999997
7 ; 4562945.095294426 ; 2.257558905230738E8 ; 3.1831998601485867E7 ; 1.5025814842543678E9 ; 2492.9799999999996
8 ; 4566901.277512711 ; 2.3038438900465143E8 ; 3.6394943696780294E7 ; 1.7283373747774415E9 ; 2849.1199999999994
9 ; 4572259.410017466 ; 2.356306218693605E8 ; 4.096184497429301E7 ; 1.958721763782093E9 ; 3205.2599999999993
10 ; 4575956.502837809 ; 2.4149459215502346E8 ; 4.553410438431048E7 ; 2.1943523856514535E9 ; 3561.399999999999
11 ; 4575602.596625635 ; 2.4797630088170624E8 ; 5.011006088714828E7 ; 2.435846977806477E9 ; 3917.539999999999
12 ; 4581734.208536941 ; 2.5507574702934283E8 ; 5.468566348377392E7 ; 2.6838232786881833E9 ; 4273.679999999999
13 ; 4583463.299070157 ; 2.6279292756011078E8 ; 5.9267397692310855E7 ; 2.938899025717526E9 ; 4629.82
14 ; 4586407.416250676 ; 2.7112783748442084E8 ; 6.385086099138101E7 ; 3.2016919532776365E9 ; 4985.96
15 ; 4591615.711799522 ; 2.8008046996720386E8 ; 6.84372684076317E7 ; 3.4728197907620573E9 ; 5342.1
16 ; 4595182.757205313 ; 2.8965081646930456E8 ; 7.302888411943121E7 ; 3.7529002607292614E9 ; 5698.240000000001
17 ; 4599541.177190018 ; 2.99838866917351E8 ; 7.762406687663652E7 ; 4.042551077198566E9 ; 6054.380000000001
18 ; 4601060.922400386 ; 3.10644609894582E8 ; 8.222360805382654E7 ; 4.342389944115917E9 ; 6410.520000000001
19 ; 4603455.145533084 ; 3.220680328447801E8 ; 8.682466897622693E7 ; 4.653034554010499E9 ; 6766.660000000002
20 ; 4607097.850461466 ; 3.3410912228166384E8 ; 9.142812412176001E7 ; 4.975102586855279E9 ; 7122.800000000002
21 ; 4611038.714080987 ; 3.467678639967354E8 ; 9.603522197222148E7 ; 5.309211709136943E9 ; 7478.940000000002
22 ; 4614559.506789655 ; 3.6004424325955504E8 ; 1.0064626068630247E8 ; 5.655979573133678E9 ; 7835.080000000003
23 ; 4617194.202300645 ; 3.7393824500558925E8 ; 1.0526082019309212E8 ; 6.016023816393233E9 ; 8191.220000000003
24 ; 4619714.472846714 ; 3.8844985400802654E8 ; 1.0987801439539278E8 ; 6.389962061398823E9 ; 8547.360000000002
25 ; 4626155.355353403 ; 4.009551368275509E8 ; 1.1449772886823949E8 ; 6.778411915406849E9 ; 8903.500000000002
26 ; 4626294.154013533 ; 4.0096117401986647E8 ; 1.1912388422359289E8 ; 7.1793670522344E9 ; 9259.640000000001
27 ; 4627532.077969746 ; 4.0096748929926157E8 ; 1.2375017837760642E8 ; 7.580328226254267E9 ; 9615.78
28 ; 4631571.750613471 ; 4.009740681264075E8 ; 1.2837771045557617E8 ; 7.981295715553528E9 ; 9971.92
29 ; 4635944.14728135 ; 4.0098089637065583E8 ; 1.3300928220618963E8 ; 8.382269783679935E9 ; 10328.06
30 ; 4637661.457665049 ; 4.0098796036886287E8 ; 1.3764522635347098E8 ; 8.78325068005059E9 ; 10684.199999999999
31 ; 4640001.037282937 ; 4.0099524696894467E8 ; 1.4228288781113604E8 ; 9.184238640419453E9 ; 11040.339999999998
32 ; 4643726.13315432 ; 4.0100274355999494E8 ; 1.4692288884841898E8 ; 9.585233887388397E9 ; 11396.479999999998
33 ; 4644534.85518215 ; 4.0101043809081185E8 ; 1.515666149815733E8 ; 9.986236630948393E9 ; 11752.619999999997
34 ; 4651284.840516409 ; 4.0101831907862127E8 ; 1.5621114983675545E8 ; 1.0387247069039206E10 ; 12108.759999999997
35 ; 4651305.799753143 ; 4.01026375609666E8 ; 1.6086243467727187E8 ; 1.0788265388117826E10 ; 12464.899999999996
36 ; 4650083.180134524 ; 4.0103459733318645E8 ; 1.65513740477025E8 ; 1.1189291763727493E10 ; 12821.039999999995
37 ; 4654543.789453041 ; 4.010429744501519E8 ; 1.7016382365715954E8 ; 1.159032636106068E10 ; 13177.179999999995
38 ; 4658496.121067318 ; 4.010514976979325E8 ; 1.7481836744661257E8 ; 1.1991369335510832E10 ; 13533.319999999994
39 ; 4658242.639572759 ; 4.0106015833193517E8 ; 1.7947686356767988E8 ; 1.2392420833208765E10 ; 13889.459999999994
40 ; 4660769.441470939 ; 4.010689481050719E8 ; 1.8413510620725265E8 ; 1.27934809915407E10 ; 14245.599999999993
41 ; 4663587.0127721755 ; 4.010778592457825E8 ; 1.887958756487236E8 ; 1.3194549939645773E10 ; 14601.739999999993
42 ; 4662996.40294091 ; 4.010868844352066E8 ; 1.9345946266149577E8 ; 1.3595627798891556E10 ; 14957.879999999992
43 ; 4667134.561079362 ; 4.010960167839869E8 ; 1.9812245906443667E8 ; 1.3996714683326763E10 ; 15314.019999999991
44 ; 4668923.297584649 ; 4.011052498090855E8 ; 2.0278959362551603E8 ; 1.439781070011075E10 ; 15670.15999999999
45 ; 4670015.103187999 ; 4.011145774109127E8 ; 2.0745851692310068E8 ; 1.4798915949919836E10 ; 16026.29999999999
46 ; 4671022.201874736 ; 4.011239938509976E8 ; 2.121285320262887E8 ; 1.520003052733075E10 ; 16382.43999999999
47 ; 4673482.662790476 ; 4.0113349373036903E8 ; 2.1679955422816342E8 ; 1.5601154521181747E10 ; 16738.57999999999
48 ; 4674369.453959272 ; 4.011430719687684E8 ; 2.214730368909539E8 ; 1.6002288014912117E10 ; 17094.71999999999
49 ; 4676088.139601784 ; 4.011527237847766E8 ; 2.2614740634491318E8 ; 1.6403431086880886E10 ; 17450.85999999999
50 ; 4677103.27330597 ; 4.011624446769043E8 ; 2.3082349448451498E8 ; 1.6804583810665663E10 ; 17806.99999999999
51 ; 4676165.909126439 ; 4.0117223040567076E8 ; 2.3550059775782096E8 ; 1.7205746255342567E10 ; 18163.13999999999
52 ; 4678229.36826588 ; 4.011820769766762E8 ; 2.401767636669474E8 ; 1.7606918485748238E10 ; 18519.279999999988
53 ; 4678849.257649807 ; 4.011919806246581E8 ; 2.4485499303521326E8 ; 1.8008100562724915E10 ; 18875.419999999987
54 ; 4681055.711551869 ; 4.012019377985082E8 ; 2.4953384229286307E8 ; 1.840929254334957E10 ; 19231.559999999987
55 ; 4680166.311805488 ; 4.012119451472223E8 ; 2.5421489800441495E8 ; 1.881049448114808E10 ; 19587.699999999986
56 ; 4680805.919619307 ; 4.012219995067451E8 ; 2.5889506431622043E8 ; 1.92117064262953E10 ; 19943.839999999986
57 ; 4681952.90538192 ; 4.012320978876716E8 ; 2.6357587023583972E8 ; 1.9612928425802044E10 ; 20299.979999999985
58 ; 4683752.674429215 ; 4.0124223746376085E8 ; 2.6825782314122164E8 ; 2.0014160523689716E10 ; 20656.119999999984
59 ; 4683489.755239393 ; 4.012524155612198E8 ; 2.729415758156509E8 ; 2.0415402761153477E10 ; 21012.259999999984
60 ; 4684763.997207389 ; 4.0126262964871323E8 ; 2.7762506557089025E8 ; 2.0816655176714695E10 ; 21368.399999999983
61 ; 4686508.483726767 ; 4.01272877328055E8 ; 2.8230982956809765E8 ; 2.1217917806363407E10 ; 21724.539999999983
62 ; 4688432.533644939 ; 4.012831563255397E8 ; 2.869963380518244E8 ; 2.1619190683691463E10 ; 22080.679999999982
63 ; 4688136.834889242 ; 4.0129346448387283E8 ; 2.916847705854693E8 ; 2.2020473840017002E10 ; 22436.81999999998
64 ; 4689269.424948082 ; 4.013037997546594E8 ; 2.9637290742035854E8 ; 2.2421767304500874E10 ; 22792.95999999998
65 ; 4690059.589221824 ; 4.013141601914149E8 ; 3.0106217684530663E8 ; 2.282307110425553E10 ; 23149.09999999998
66 ; 4690846.204205479 ; 4.01324543943061E8 ; 3.0575223643452847E8 ; 2.3224385264446945E10 ; 23505.23999999998
67 ; 4691975.344254272 ; 4.0133494924787366E8 ; 3.104430826387339E8 ; 2.3625709808390007E10 ; 23861.37999999998
68 ; 4692637.770156682 ; 4.013453744278517E8 ; 3.151350579829882E8 ; 2.4027044757637882E10 ; 24217.51999999998
69 ; 4691190.103653553 ; 4.0135581788347477E8 ; 3.1982769575314486E8 ; 2.4428390132065735E10 ; 24573.659999999978
70 ; 4693042.041364952 ; 4.0136627808882475E8 ; 3.245188858567984E8 ; 2.482974594994921E10 ; 24929.799999999977
71 ; 4692589.62652751 ; 4.013767535870432E8 ; 3.292119278981634E8 ; 2.5231112228038036E10 ; 25285.939999999977
72 ; 4692827.047032779 ; 4.01387242986101E8 ; 3.3390451752469087E8 ; 2.563248898162508E10 ; 25642.079999999976
73 ; 4693312.755700622 ; 4.0139774495485747E8 ; 3.3859734457172364E8 ; 2.603387622461118E10 ; 25998.219999999976
74 ; 4691932.798516619 ; 4.0140825821938884E8 ; 3.432906573274243E8 ; 2.6435273969566036E10 ; 26354.359999999975
75 ; 4692686.819804904 ; 4.0141878155956495E8 ; 3.479825901259409E8 ; 2.6836682227785423E10 ; 26710.499999999975
76 ; 4689746.173970722 ; 4.0142931380585766E8 ; 3.526752769457458E8 ; 2.723810100934499E10 ; 27066.639999999974
77 ; 4690277.15412521 ; 4.014398538363639E8 ; 3.573650231197165E8 ; 2.763953032315085E10 ; 27422.779999999973
78 ; 4692261.630202642 ; 4.0145040057402676E8 ; 3.6205530027384174E8 ; 2.8040970176987213E10 ; 27778.919999999973
79 ; 4690336.854409577 ; 4.0146095298404205E8 ; 3.667475619040444E8 ; 2.844242057756124E10 ; 28135.059999999972
80 ; 4691274.293459917 ; 4.0147151007143545E8 ; 3.7143789875845397E8 ; 2.8843881530545284E10 ; 28491.19999999997
81 ; 4691649.713225477 ; 4.0148207087879926E8 ; 3.7612917305191386E8 ; 2.924535304061672E10 ; 28847.33999999997
82 ; 4690330.486914417 ; 4.0149263448417616E8 ; 3.8082082276513934E8 ; 2.9646835111495518E10 ; 29203.47999999997
83 ; 4690570.266614409 ; 4.015031999990805E8 ; 3.8551115325205374E8 ; 3.0048327745979694E10 ; 29559.61999999997
84 ; 4692790.456316145 ; 4.015137665666467E8 ; 3.902017235186682E8 ; 3.0449830945978775E10 ; 29915.75999999997
85 ; 4691710.783463489 ; 4.0152433335989654E8 ; 3.9489451397498435E8 ; 3.085134471254542E10 ; 30271.89999999997
86 ; 4688854.308946757 ; 4.0153489958011574E8 ; 3.995862247584478E8 ; 3.125286904590532E10 ; 30628.039999999968
87 ; 4690813.903039308 ; 4.015454644553335E8 ; 4.0427507906739455E8 ; 3.1654403945485435E10 ; 30984.179999999968
88 ; 4690624.479887294 ; 4.015560272388972E8 ; 4.089658929704339E8 ; 3.205594940994077E10 ; 31340.319999999967
89 ; 4689152.516531141 ; 4.015665872081356E8 ; 4.136565174503212E8 ; 3.2457505437179665E10 ; 31696.459999999966
90 ; 4689200.809230192 ; 4.015771436631049E8 ; 4.1834566996685237E8 ; 3.2859072024387802E10 ; 32052.599999999966
91 ; 4687740.656469229 ; 4.01587695925411E8 ; 4.230348707760826E8 ; 3.3260649168050907E10 ; 32408.739999999965
92 ; 4687162.962546538 ; 4.0159824333710444E8 ; 4.277226114325518E8 ; 3.366223686397632E10 ; 32764.879999999965
93 ; 4688695.832664061 ; 4.016087852596416E8 ; 4.324097743950983E8 ; 3.4063835107313423E10 ; 33121.01999999997
94 ; 4687468.35626817 ; 4.016193210729081E8 ; 4.370984702277624E8 ; 3.446544389257307E10 ; 33477.15999999997
95 ; 4687076.734304553 ; 4.016298501743008E8 ; 4.4178593858403057E8 ; 3.486706321364597E10 ; 33833.29999999997
96 ; 4682007.770730348 ; 4.016403719778638E8 ; 4.464730153183351E8 ; 3.5268693063820274E10 ; 34189.439999999966
97 ; 4683678.305491909 ; 4.016508859134753E8 ; 4.511550230890655E8 ; 3.567033343579814E10 ; 34545.579999999965
98 ; 4682311.62573547 ; 4.01661391426082E8 ; 4.558387013945574E8 ; 3.607198432171162E10 ; 34901.719999999965
99 ; 4683304.337526597 ; 4.0167188797497755E8 ; 4.605210130202929E8 ; 3.6473645713137695E10 ; 35257.859999999964
100 ; 4681636.318470316 ; 4.016823750331226E8 ; 4.652043173578195E8 ; 3.687531760111267E10 ; 35613.99999999996
101 ; 4681924.739334398 ; 4.016928520865037E8 ; 4.698859536762898E8 ; 3.727699997614579E10 ; 35970.13999999996
102 ; 4678203.968301508 ; 4.0170331863352835E8 ; 4.745678784156242E8 ; 3.767869282823229E10 ; 36326.27999999996
103 ; 4678881.6446675435 ; 4.017137741844543E8 ; 4.7924608238392574E8 ; 3.808039614686582E10 ; 36682.41999999996
104 ; 4674437.374526713 ; 4.0172421826085055E8 ; 4.839249640285933E8 ; 3.848210992105028E10 ; 37038.55999999996
105 ; 4677170.237223588 ; 4.017346503950881E8 ; 4.8859940140312004E8 ; 3.888383413931113E10 ; 37394.69999999996
106 ; 4674994.367539093 ; 4.017450701298592E8 ; 4.932765716403436E8 ; 3.9285568789706215E10 ; 37750.83999999996
107 ; 4673599.798006699 ; 4.0175547701772225E8 ; 4.979515660078827E8 ; 3.9687313859836075E10 ; 38106.97999999996
108 ; 4670277.784475673 ; 4.017658706206721E8 ; 5.026251658058894E8 ; 4.00890693368538E10 ; 38463.11999999996
109 ; 4672067.482820928 ; 4.017762505097326E8 ; 5.072954435903651E8 ; 4.049083520747447E10 ; 38819.25999999996
110 ; 4669071.705162229 ; 4.01786616264572E8 ; 5.1196751107318604E8 ; 4.089261145798421E10 ; 39175.39999999996
111 ; 4669612.307405529 ; 4.017969674731381E8 ; 5.1663658277834827E8 ; 4.129439807424878E10 ; 39531.53999999996
112 ; 4668111.738347417 ; 4.018073037313126E8 ; 5.213061950857538E8 ; 4.169619504172192E10 ; 39887.67999999996
113 ; 4667135.370541032 ; 4.018176246425841E8 ; 5.259743068241012E8 ; 4.209800234545323E10 ; 40243.819999999956
114 ; 4663714.721115151 ; 4.018279298177378E8 ; 5.3064144219464225E8 ; 4.249981997009582E10 ; 40599.959999999955
115 ; 4661727.5077570565 ; 4.018382188745612E8 ; 5.353051569157574E8 ; 4.290164789991356E10 ; 40956.099999999955
116 ; 4663029.004611792 ; 4.0184849143756473E8 ; 5.399668844235145E8 ; 4.330348611878812E10 ; 41312.239999999954
117 ; 4658869.694382668 ; 4.018587471377175E8 ; 5.446299134281263E8 ; 4.370533461022568E10 ; 41668.379999999954
118 ; 4658342.515810217 ; 4.0186898561219525E8 ; 5.49288783122509E8 ; 4.4107193357363396E10 ; 42024.51999999995
119 ; 4653373.337445873 ; 4.018792065041419E8 ; 5.539471256383193E8 ; 4.450906234297559E10 ; 42380.65999999995
120 ; 4654466.362377857 ; 4.018894094624429E8 ; 5.586004989757651E8 ; 4.491094154947974E10 ; 42736.79999999995
121 ; 4651168.664993218 ; 4.0189959414150906E8 ; 5.63254965338143E8 ; 4.531283095894218E10 ; 43092.93999999995
122 ; 4649342.428645242 ; 4.019097602010722E8 ; 5.679061340031362E8 ; 4.571473055308369E10 ; 43449.07999999995
123 ; 4648243.577929776 ; 4.0191990730599034E8 ; 5.725554764317814E8 ; 4.611664031328476E10 ; 43805.21999999995
124 ; 4644306.13399284 ; 4.019300351260617E8 ; 5.772037200097111E8 ; 4.651856022059075E10 ; 44161.35999999995
125 ; 4642141.40085256 ; 4.019401433358492E8 ; 5.818480261437039E8 ; 4.692049025571681E10 ; 44517.49999999995
126 ; 4640109.6229954325 ; 4.019502316145122E8 ; 5.864901675445565E8 ; 4.732243039905266E10 ; 44873.63999999995
127 ; 4636042.130059852 ; 4.0196029964564645E8 ; 5.911302771675519E8 ; 4.772438063066717E10 ; 45229.77999999995
128 ; 4634281.072015128 ; 4.019703471171324E8 ; 5.957663192976117E8 ; 4.812634093031281E10 ; 45585.91999999995
129 ; 4630081.253456551 ; 4.019803737209898E8 ; 6.004006003696269E8 ; 4.852831127742995E10 ; 45942.05999999995
130 ; 4627042.01226708 ; 4.019903791532397E8 ; 6.050306816230835E8 ; 4.893029165115094E10 ; 46298.199999999946
131 ; 4623419.607815476 ; 4.020003631137728E8 ; 6.096577236353506E8 ; 4.933228203030418E10 ; 46654.339999999946
132 ; 4622023.153349511 ; 4.0201032530622363E8 ; 6.142811432431661E8 ; 4.9734282393417946E10 ; 47010.479999999945
133 ; 4619643.625069802 ; 4.0202026543785113E8 ; 6.189031663965156E8 ; 5.013629271872417E10 ; 47366.619999999944
134 ; 4616654.534930323 ; 4.0203018321942395E8 ; 6.235228100215855E8 ; 5.053831298416202E10 ; 47722.759999999944
135 ; 4615658.517400236 ; 4.020400783651117E8 ; 6.281394645565158E8 ; 5.094034316738144E10 ; 48078.89999999994
136 ; 4612815.3756224075 ; 4.0204995059238106E8 ; 6.327551230739161E8 ; 5.134238324574655E10 ; 48435.03999999994
137 ; 4609372.092993483 ; 4.0205979962189585E8 ; 6.373679384495385E8 ; 5.1744433196338936E10 ; 48791.17999999994
138 ; 4608586.105859861 ; 4.0206962517742264E8 ; 6.41977310542532E8 ; 5.214649299596083E10 ; 49147.31999999994
139 ; 4603264.080111254 ; 4.0207942698573995E8 ; 6.465858966483918E8 ; 5.254856262113825E10 ; 49503.45999999994
140 ; 4601381.670850256 ; 4.020892047765516E8 ; 6.511891607285031E8 ; 5.295064204812399E10 ; 49859.59999999994
141 ; 4597531.5628365185 ; 4.0209895828240407E8 ; 6.557905423993534E8 ; 5.335273125290054E10 ; 50215.73999999994
142 ; 4595207.409975032 ; 4.0210868723860717E8 ; 6.603880739621899E8 ; 5.3754830211182945E10 ; 50571.87999999994
143 ; 4592483.309894813 ; 4.021183913831587E8 ; 6.64983281372165E8 ; 5.4156938898421555E10 ; 50928.01999999994
144 ; 4589160.434987335 ; 4.021280704566721E8 ; 6.695757646820598E8 ; 5.455905728980471E10 ; 51284.15999999994
145 ; 4587556.799535889 ; 4.0213772420230675E8 ; 6.741649251170471E8 ; 5.496118536026138E10 ; 51640.29999999994
146 ; 4585680.716755771 ; 4.0214735236570275E8 ; 6.78752481916583E8 ; 5.536332308446369E10 ; 51996.43999999994
147 ; 4584700.667274615 ; 4.021569546949167E8 ; 6.833381626333387E8 ; 5.576547043682939E10 ; 52352.579999999936
148 ; 4586055.929973838 ; 4.021665309403615E8 ; 6.879228633006133E8 ; 5.616762739152431E10 ; 52708.719999999936
149 ; 4582775.040881561 ; 4.0217608085474825E8 ; 6.925089192305871E8 ; 5.656979392246467E10 ; 53064.859999999935
150 ; 4580719.189459602 ; 4.0218560419303095E8 ; 6.970916942714686E8 ; 5.697197000331942E10 ; 53420.999999999935
151 ; 4579298.227464318 ; 4.0219510071235275E8 ; 7.016724134609282E8 ; 5.737415560751245E10 ; 53777.139999999934
152 ; 4578114.09023581 ; 4.0220457017199564E8 ; 7.062517116883925E8 ; 5.777635070822481E10 ; 54133.27999999993
153 ; 4577179.132210716 ; 4.0221401233333117E8 ; 7.108298257786283E8 ; 5.8178555278396805E10 ; 54489.41999999993
154 ; 4575669.832110116 ; 4.02223426959774E8 ; 7.154070049108391E8 ; 5.858076929073013E10 ; 54845.55999999993
155 ; 4574995.608877047 ; 4.022328138167368E8 ; 7.199826747429492E8 ; 5.898299271768991E10 ; 55201.69999999993
156 ; 4574634.004825342 ; 4.022421726715878E8 ; 7.245576703518263E8 ; 5.9385225531506645E10 ; 55557.83999999993
157 ; 4573958.939659809 ; 4.0225150329360914E8 ; 7.291323043566517E8 ; 5.978746770417823E10 ; 55913.97999999993
158 ; 4572766.414004118 ; 4.0226080545395744E8 ; 7.337062632963115E8 ; 6.018971920747184E10 ; 56270.11999999993
159 ; 4568307.407283531 ; 4.022700789256263E8 ; 7.382790297103156E8 ; 6.05919800129258E10 ; 56626.25999999993
160 ; 4570115.360622276 ; 4.0227932348341E8 ; 7.428473371175991E8 ; 6.0994250091851425E10 ; 56982.39999999993
161 ; 4568766.620859759 ; 4.022885389038682E8 ; 7.474174524782214E8 ; 6.139652941533484E10 ; 57338.53999999993
162 ; 4566608.097470516 ; 4.022977249652933E8 ; 7.519862190990812E8 ; 6.179881795423871E10 ; 57694.67999999993
163 ; 4563916.056846378 ; 4.0230688144767785E8 ; 7.565528271965517E8 ; 6.2201115679204E10 ; 58050.81999999993
164 ; 4564682.393040752 ; 4.02316008132684E8 ; 7.611167432533981E8 ; 6.260342256065168E10 ; 58406.95999999993
165 ; 4560552.739658664 ; 4.0232510480361414E8 ; 7.656814256464388E8 ; 6.300573856878436E10 ; 58763.099999999926
166 ; 4558016.807049644 ; 4.023341712453828E8 ; 7.702419783860976E8 ; 6.3408063673587975E10 ; 59119.239999999925
167 ; 4553855.638255024 ; 4.0234320724448884E8 ; 7.747999951931472E8 ; 6.381039784483336E10 ; 59475.379999999925
168 ; 4552883.142731357 ; 4.023522125889901E8 ; 7.793538508314022E8 ; 6.421274105207785E10 ; 59831.519999999924
169 ; 4550836.811480587 ; 4.023611870684782E8 ; 7.839067339741335E8 ; 6.461509326466684E10 ; 60187.65999999992
170 ; 4550869.542909337 ; 4.0237013047405434E8 ; 7.884575707856141E8 ; 6.501745445173532E10 ; 60543.79999999992
171 ; 4547131.864090914 ; 4.0237904259830654E8 ; 7.930084403285235E8 ; 6.541982458220937E10 ; 60899.93999999992
172 ; 4545798.980040715 ; 4.023879232352873E8 ; 7.975555721926144E8 ; 6.582220362480768E10 ; 61256.07999999992
173 ; 4546645.669532425 ; 4.023967721804925E8 ; 8.021013711726551E8 ; 6.622459154804297E10 ; 61612.21999999992
174 ; 4545616.646205478 ; 4.0240558923084104E8 ; 8.066480168421875E8 ; 6.6626988320223465E10 ; 61968.35999999992
175 ; 4546889.37585533 ; 4.024143741846551E8 ; 8.11193633488393E8 ; 6.702939390945431E10 ; 62324.49999999992
176 ; 4546668.145773378 ; 4.024231268416414E8 ; 8.157405228642483E8 ; 6.743180828363896E10 ; 62680.63999999992
177 ; 4546471.599023057 ; 4.0243184700287354E8 ; 8.202871910100217E8 ; 6.7834231410480606E10 ; 63036.77999999992
