CSV File for the Network on Day 339
1 - Minute m 
2 - Power Consumed at minute m 
3 - Power Produced at minute m 
4 - Energy Consumed since the beginning of the day 
5 - Energy Produced since the beginning of the day 
6 - Energy Lost since the beginning of the day 
 
0 ; 4567462.998147092 ; 2.1131638640861776E8 ; 0.0 ; 0.0 ; 0.0
1 ; 4570685.742767377 ; 2.1162227359207746E8 ; 4567462.998147092 ; 2.1131638640861776E8 ; 356.14
2 ; 4575446.965295109 ; 2.1254572763333234E8 ; 9138148.740914468 ; 4.229386600006952E8 ; 712.28
3 ; 4581004.215258157 ; 2.140867508476195E8 ; 1.3713595706209578E7 ; 6.354843876340276E8 ; 1068.42
4 ; 4585596.823996039 ; 2.1624534530200794E8 ; 1.8294599921467736E7 ; 8.495711384816471E8 ; 1424.56
5 ; 4588236.111179143 ; 2.1902151280661032E8 ; 2.2880196745463774E7 ; 1.065816483783655E9 ; 1780.6999999999998
6 ; 4594239.859964522 ; 2.224152549067751E8 ; 2.7468432856642917E7 ; 1.2848379965902653E9 ; 2136.8399999999997
7 ; 4597399.150280236 ; 2.2642657287633893E8 ; 3.2062672716607437E7 ; 1.5072532514970403E9 ; 2492.9799999999996
8 ; 4599790.573766993 ; 2.3105546771200648E8 ; 3.6660071866887674E7 ; 1.7336798243733792E9 ; 2849.1199999999994
9 ; 4606037.87227737 ; 2.3630194012891737E8 ; 4.1259862440654665E7 ; 1.9647352920853858E9 ; 3205.2599999999993
10 ; 4606629.4827031065 ; 2.4216599055744508E8 ; 4.586590031293204E7 ; 2.201037232214303E9 ; 3561.399999999999
11 ; 4611035.076959089 ; 2.486476191412631E8 ; 5.047252979563514E7 ; 2.443203222771748E9 ; 3917.539999999999
12 ; 4616036.15421236 ; 2.5574682573669788E8 ; 5.508356487259423E7 ; 2.691850841913011E9 ; 4273.679999999999
13 ; 4621129.361322155 ; 2.6346360991337594E8 ; 5.969960102680659E7 ; 2.9475976676497087E9 ; 4629.82
14 ; 4623986.99723327 ; 2.7179797095615786E8 ; 6.432073038812875E7 ; 3.2110612775630846E9 ; 4985.96
15 ; 4626870.289164043 ; 2.807499078683387E8 ; 6.894471738536201E7 ; 3.4828592485192423E9 ; 5342.1
16 ; 4628150.247147392 ; 2.9031941937608206E8 ; 7.357158767452605E7 ; 3.763609156387581E9 ; 5698.240000000001
17 ; 4632362.967001065 ; 3.005065039340393E8 ; 7.819973792167345E7 ; 4.053928575763663E9 ; 6054.380000000001
18 ; 4633870.483009452 ; 3.113111597320978E8 ; 8.283210088867451E7 ; 4.354435079697702E9 ; 6410.520000000001
19 ; 4637901.264275081 ; 3.227333847031886E8 ; 8.746597137168397E7 ; 4.6657462394298E9 ; 6766.660000000002
20 ; 4641406.205781809 ; 3.347731765320745E8 ; 9.210387263595906E7 ; 4.988479624132989E9 ; 7122.800000000002
21 ; 4645365.891009208 ; 3.4743053266503394E8 ; 9.674527884174086E7 ; 5.323252800665064E9 ; 7478.940000000002
22 ; 4648380.796191086 ; 3.6070545032034624E8 ; 1.0139064473275007E8 ; 5.670683333330098E9 ; 7835.080000000003
23 ; 4651081.332137872 ; 3.745979264994815E8 ; 1.0603902552894115E8 ; 6.031388783650444E9 ; 8191.220000000003
24 ; 4657002.053209127 ; 3.891079579988927E8 ; 1.1069010686107902E8 ; 6.405986710149925E9 ; 8547.360000000002
25 ; 4657215.613660151 ; 4.0161162321867573E8 ; 1.1534710891428815E8 ; 6.795094668148818E9 ; 8903.500000000002
26 ; 4661129.2353585465 ; 4.016160142490488E8 ; 1.200043245279483E8 ; 7.196706291367494E9 ; 9259.640000000001
27 ; 4664926.551602674 ; 4.0162066593314177E8 ; 1.2466545376330686E8 ; 7.598322305616543E9 ; 9615.78
28 ; 4667582.3752454305 ; 4.016255743737165E8 ; 1.2933038031490953E8 ; 7.999942971549685E9 ; 9971.92
29 ; 4669411.498988902 ; 4.016307355329305E8 ; 1.3399796269015497E8 ; 8.401568545923401E9 ; 10328.06
30 ; 4674147.806436677 ; 4.0163614524561524E8 ; 1.3866737418914387E8 ; 8.803199281456331E9 ; 10684.199999999999
31 ; 4676883.721940619 ; 4.0164179923247284E8 ; 1.4334152199558055E8 ; 9.204835426701946E9 ; 11040.339999999998
32 ; 4678926.673628445 ; 4.0164769311311185E8 ; 1.4801840571752116E8 ; 9.60647722593442E9 ; 11396.479999999998
33 ; 4681976.10933823 ; 4.0165382241884756E8 ; 1.526973323911496E8 ; 1.0008124919047531E10 ; 11752.619999999997
34 ; 4684243.1910958085 ; 4.0166018260520136E8 ; 1.5737930850048783E8 ; 1.040977874146638E10 ; 12108.759999999997
35 ; 4686734.323466418 ; 4.016667690640399E8 ; 1.6206355169158363E8 ; 1.081143892407158E10 ; 12464.899999999996
36 ; 4689300.878322944 ; 4.016735771353028E8 ; 1.6675028601505005E8 ; 1.121310569313562E10 ; 12821.039999999995
37 ; 4690159.949981351 ; 4.016806021182755E8 ; 1.71439586893373E8 ; 1.1614779270270924E10 ; 13177.179999999995
38 ; 4692648.694886055 ; 4.016878392823708E8 ; 1.7612974684335437E8 ; 1.2016459872389198E10 ; 13533.319999999994
39 ; 4699281.360968582 ; 4.016952838773886E8 ; 1.8082239553824043E8 ; 1.241814771167157E10 ; 13889.459999999994
40 ; 4697868.1717328895 ; 4.0170293114323395E8 ; 1.8552167689920902E8 ; 1.2819842995548958E10 ; 14245.599999999993
41 ; 4701351.040313607 ; 4.017107763190745E8 ; 1.9021954507094193E8 ; 1.3221545926692192E10 ; 14601.739999999993
42 ; 4702166.250759183 ; 4.0171881465193E8 ; 1.9492089611125553E8 ; 1.3623256703011267E10 ; 14957.879999999992
43 ; 4705917.294689862 ; 4.017270414046867E8 ; 1.996230623620147E8 ; 1.4024975517663197E10 ; 15314.019999999991
44 ; 4704532.088010519 ; 4.0173545186353993E8 ; 2.0432897965670457E8 ; 1.4426702559067883E10 ; 15670.15999999999
45 ; 4707588.217544494 ; 4.017440413448671E8 ; 2.090335117447151E8 ; 1.4828438010931423E10 ; 16026.29999999999
46 ; 4712056.171019963 ; 4.01752805201542E8 ; 2.137410999622596E8 ; 1.523018205227629E10 ; 16382.43999999999
47 ; 4711205.816386886 ; 4.017617388287014E8 ; 2.1845315613327956E8 ; 1.5631934857477833E10 ; 16738.57999999999
48 ; 4715417.698639908 ; 4.0177083766898024E8 ; 2.2316436194966644E8 ; 1.6033696596306534E10 ; 17094.71999999999
49 ; 4715835.227008887 ; 4.0178009721723235E8 ; 2.2787977964830634E8 ; 1.6435467433975513E10 ; 17450.85999999999
50 ; 4716879.862199826 ; 4.017895130247565E8 ; 2.3259561487531522E8 ; 1.6837247531192745E10 ; 17806.99999999999
51 ; 4717947.206212623 ; 4.017990807030497E8 ; 2.3731249473751503E8 ; 1.7239037044217503E10 ; 18163.13999999999
52 ; 4718695.660002499 ; 4.018087959271096E8 ; 2.4203044194372764E8 ; 1.764083612492055E10 ; 18519.279999999988
53 ; 4720021.030234252 ; 4.018186544383093E8 ; 2.4674913760373014E8 ; 1.804264492084766E10 ; 18875.419999999987
54 ; 4720141.443728214 ; 4.0182865204686964E8 ; 2.514691586339644E8 ; 1.844446357528597E10 ; 19231.559999999987
55 ; 4720877.261741306 ; 4.018387846339509E8 ; 2.561893000776926E8 ; 1.884629222733284E10 ; 19587.699999999986
56 ; 4720880.600775834 ; 4.0184904815339077E8 ; 2.609101773394339E8 ; 1.924813101196679E10 ; 19943.839999999986
57 ; 4724701.577558414 ; 4.018594386331103E8 ; 2.6563105794020975E8 ; 1.964998006012018E10 ; 20299.979999999985
58 ; 4724670.547676909 ; 4.0186995217621255E8 ; 2.7035575951776814E8 ; 2.005183949875329E10 ; 20656.119999999984
59 ; 4725812.643340678 ; 4.018805849617965E8 ; 2.7508043006544507E8 ; 2.04537094509295E10 ; 21012.259999999984
60 ; 4729413.102217601 ; 4.018913332455094E8 ; 2.798062427087858E8 ; 2.0855590035891296E10 ; 21368.399999999983
61 ; 4728740.890821954 ; 4.019021933598571E8 ; 2.845356558110034E8 ; 2.1257481369136806E10 ; 21724.539999999983
62 ; 4730080.459774213 ; 4.01913161714296E8 ; 2.892643967018253E8 ; 2.1659383562496662E10 ; 22080.679999999982
63 ; 4730561.432832254 ; 4.019242347951232E8 ; 2.939944771615995E8 ; 2.2061296724210957E10 ; 22436.81999999998
64 ; 4732444.196988516 ; 4.019354091651869E8 ; 2.9872503859443176E8 ; 2.246322095900608E10 ; 22792.95999999998
65 ; 4732773.860843589 ; 4.0194668146343124E8 ; 3.034574827914203E8 ; 2.286515636817127E10 ; 23149.09999999998
66 ; 4734056.669384825 ; 4.019580484042963E8 ; 3.081902566522639E8 ; 2.32671030496347E10 ; 23505.23999999998
67 ; 4735616.203830511 ; 4.0196950677698565E8 ; 3.129243133216487E8 ; 2.3669061098038998E10 ; 23861.37999999998
68 ; 4735895.373116273 ; 4.019810534446186E8 ; 3.1765992952547926E8 ; 2.4071030604815983E10 ; 24217.51999999998
69 ; 4736870.72100178 ; 4.019926853432793E8 ; 3.223958248985955E8 ; 2.44730116582606E10 ; 24573.659999999978
70 ; 4735434.535608585 ; 4.020043994809774E8 ; 3.271326956195973E8 ; 2.487500434360388E10 ; 24929.799999999977
71 ; 4740966.674203011 ; 4.020161929365298E8 ; 3.318681301552059E8 ; 2.5277008743084858E10 ; 25285.939999999977
72 ; 4737828.846115336 ; 4.020280628583769E8 ; 3.3660909682940894E8 ; 2.567902493602139E10 ; 25642.079999999976
73 ; 4740395.68666697 ; 4.0204000646334183E8 ; 3.413469256755243E8 ; 2.6081052998879765E10 ; 25998.219999999976
74 ; 4739752.446233644 ; 4.0205202103534275E8 ; 3.4608732136219126E8 ; 2.6483093005343105E10 ; 26354.359999999975
75 ; 4741226.773821555 ; 4.0206410392406696E8 ; 3.508270738084249E8 ; 2.688514502637845E10 ; 26710.499999999975
76 ; 4739535.513274966 ; 4.0207625254361373E8 ; 3.555683005822464E8 ; 2.7287209130302517E10 ; 27066.639999999974
77 ; 4739186.309316585 ; 4.02088464371114E8 ; 3.603078360955214E8 ; 2.768928538284613E10 ; 27422.779999999973
78 ; 4740077.20962602 ; 4.02100736945333E8 ; 3.6504702240483797E8 ; 2.8091373847217243E10 ; 27778.919999999973
79 ; 4739763.321473115 ; 4.0211306786526084E8 ; 3.69787099614464E8 ; 2.8493474584162575E10 ; 28135.059999999972
80 ; 4742976.600027552 ; 4.0212545478869855E8 ; 3.745268629359371E8 ; 2.8895587652027836E10 ; 28491.19999999997
81 ; 4742075.762432151 ; 4.021378954308412E8 ; 3.7926983953596467E8 ; 2.9297713106816536E10 ; 28847.33999999997
82 ; 4742982.561120201 ; 4.0215038756286526E8 ; 3.840119152983968E8 ; 2.9699851002247375E10 ; 29203.47999999997
83 ; 4743892.326180236 ; 4.021629290105219E8 ; 3.8875489785951704E8 ; 3.010200138981024E10 ; 29559.61999999997
84 ; 4743053.627449039 ; 4.021755176527408E8 ; 3.9349879018569726E8 ; 3.0504164318820763E10 ; 29915.75999999997
85 ; 4743006.398182664 ; 4.0218815142024696E8 ; 3.982418438131463E8 ; 3.0906339836473503E10 ; 30271.89999999997
86 ; 4743846.75690425 ; 4.02200828294193E8 ; 4.02984850211329E8 ; 3.130852798789375E10 ; 30628.039999999968
87 ; 4744131.798569717 ; 4.0221354630480933E8 ; 4.077286969682332E8 ; 3.1710728816187943E10 ; 30984.179999999968
88 ; 4742898.251512598 ; 4.0222630353007424E8 ; 4.1247282876680297E8 ; 3.2112942362492752E10 ; 31340.319999999967
89 ; 4741724.929283552 ; 4.022390980944054E8 ; 4.1721572701831555E8 ; 3.2515168666022827E10 ; 31696.459999999966
90 ; 4744196.660485787 ; 4.022519281673747E8 ; 4.219574519475991E8 ; 3.2917407764117233E10 ; 32052.599999999966
91 ; 4742728.724796249 ; 4.022647919624466E8 ; 4.267016486080849E8 ; 3.3319659692284607E10 ; 32408.739999999965
92 ; 4743460.187349506 ; 4.02277687735742E8 ; 4.3144437733288115E8 ; 3.3721924484247055E10 ; 32764.879999999965
93 ; 4744712.419333547 ; 4.0229061378482795E8 ; 4.3618783752023065E8 ; 3.4124202171982796E10 ; 33121.01999999997
94 ; 4742721.696163958 ; 4.0230356844753367E8 ; 4.409325499395642E8 ; 3.4526492785767624E10 ; 33477.15999999997
95 ; 4742595.615693594 ; 4.02316550100794E8 ; 4.456752716357282E8 ; 3.492879635421516E10 ; 33833.29999999997
96 ; 4741538.734004115 ; 4.023295571595198E8 ; 4.5041786725142175E8 ; 3.533111290431595E10 ; 34189.439999999966
97 ; 4743390.04210537 ; 4.023425880754958E8 ; 4.551594059854259E8 ; 3.573344246147547E10 ; 34545.579999999965
98 ; 4742042.741496133 ; 4.023556413363067E8 ; 4.5990279602753127E8 ; 3.6135785049550964E10 ; 34901.719999999965
99 ; 4741430.019918751 ; 4.0236871546429026E8 ; 4.646448387690274E8 ; 3.653814069088727E10 ; 35257.859999999964
100 ; 4740294.70819881 ; 4.023818090155182E8 ; 4.6938626878894615E8 ; 3.6940509406351555E10 ; 35613.99999999996
101 ; 4740358.533453533 ; 4.0239492057880425E8 ; 4.7412656349714494E8 ; 3.734289121536707E10 ; 35970.13999999996
102 ; 4739984.701123656 ; 4.024080487747401E8 ; 4.7886692203059846E8 ; 3.774528613594588E10 ; 36326.27999999996
103 ; 4738652.644867909 ; 4.024211922547572E8 ; 4.836069067317221E8 ; 3.814769418472062E10 ; 36682.41999999996
104 ; 4738893.689666172 ; 4.024343497002158E8 ; 4.8834555937659E8 ; 3.855011537697538E10 ; 37038.55999999996
105 ; 4739839.214024047 ; 4.024475198215197E8 ; 4.9308445306625617E8 ; 3.89525497266756E10 ; 37394.69999999996
106 ; 4739945.95181686 ; 4.0246070135725725E8 ; 4.9782429228028023E8 ; 3.9354997246497116E10 ; 37750.83999999996
107 ; 4736581.445651376 ; 4.024738930733671E8 ; 5.025642382320971E8 ; 3.975745794785437E10 ; 38106.97999999996
108 ; 4738352.497987661 ; 4.0248709376232886E8 ; 5.0730081967774844E8 ; 4.0159931840927734E10 ; 38463.11999999996
109 ; 4736401.093472128 ; 4.025003022423786E8 ; 5.120391721757361E8 ; 4.056241893469006E10 ; 38819.25999999996
110 ; 4736020.095724256 ; 4.025135173567468E8 ; 5.1677557326920825E8 ; 4.096491923693244E10 ; 39175.39999999996
111 ; 4735451.311294858 ; 4.0252673797292155E8 ; 5.2151159336493254E8 ; 4.136743275428919E10 ; 39531.53999999996
112 ; 4734261.749436925 ; 4.025399629819324E8 ; 5.262470446762274E8 ; 4.1769959492262115E10 ; 39887.67999999996
113 ; 4733331.978648438 ; 4.025531912976576E8 ; 5.309813064256643E8 ; 4.217249945524405E10 ; 40243.819999999956
114 ; 4732276.417276475 ; 4.025664218561529E8 ; 5.3571463840431273E8 ; 4.257505264654171E10 ; 40599.959999999955
115 ; 4731513.199314925 ; 4.025796536150008E8 ; 5.404469148215892E8 ; 4.2977619068397865E10 ; 40956.099999999955
116 ; 4728982.756382922 ; 4.025928855526805E8 ; 5.451784280209042E8 ; 4.338019872201286E10 ; 41312.239999999954
117 ; 4728631.268605029 ; 4.026061166679585E8 ; 5.499074107772871E8 ; 4.3782791607565544E10 ; 41668.379999999954
118 ; 4726628.32224073 ; 4.0261934597929734E8 ; 5.546360420458921E8 ; 4.4185397724233505E10 ; 42024.51999999995
119 ; 4725968.743809342 ; 4.026325725242842E8 ; 5.593626703681328E8 ; 4.45880170702128E10 ; 42380.65999999995
120 ; 4727552.565024508 ; 4.0264579535907733E8 ; 5.640886391119422E8 ; 4.499064964273708E10 ; 42736.79999999995
121 ; 4726111.245795562 ; 4.026590135578704E8 ; 5.688161916769667E8 ; 4.539329543809616E10 ; 43092.93999999995
122 ; 4724560.124067041 ; 4.0267222621237403E8 ; 5.735423029227623E8 ; 4.579595445165403E10 ; 43449.07999999995
123 ; 4721551.537196012 ; 4.0268543243131393E8 ; 5.782668630468293E8 ; 4.61986266778664E10 ; 43805.21999999995
124 ; 4720241.290985659 ; 4.026986313399456E8 ; 5.829884145840254E8 ; 4.6601312110297714E10 ; 44161.35999999995
125 ; 4719578.706075806 ; 4.027118220795844E8 ; 5.877086558750111E8 ; 4.700401074163766E10 ; 44517.49999999995
126 ; 4714462.503870996 ; 4.027250038071511E8 ; 5.924282345810869E8 ; 4.740672256371724E10 ; 44873.63999999995
127 ; 4711299.879612514 ; 4.027381756947318E8 ; 5.971426970849578E8 ; 4.780944756752439E10 ; 45229.77999999995
128 ; 4710389.444362281 ; 4.027513369291529E8 ; 6.018539969645704E8 ; 4.8212185743219124E10 ; 45585.91999999995
129 ; 4707170.359625472 ; 4.027644867115691E8 ; 6.065643864089327E8 ; 4.861493708014828E10 ; 45942.05999999995
130 ; 4708243.596544872 ; 4.027776242570652E8 ; 6.112715567685581E8 ; 4.901770156685985E10 ; 46298.199999999946
131 ; 4702910.1070951065 ; 4.027907487942709E8 ; 6.15979800365103E8 ; 4.942047919111691E10 ; 46654.339999999946
132 ; 4699492.375000755 ; 4.0280385956498784E8 ; 6.206827104721981E8 ; 4.982326993991119E10 ; 47010.479999999945
133 ; 4699091.325991151 ; 4.0281695582382935E8 ; 6.253822028471988E8 ; 5.022607379947617E10 ; 47366.619999999944
134 ; 4698629.91514278 ; 4.028300368378713E8 ; 6.3008129417319E8 ; 5.06288907553E10 ; 47722.759999999944
135 ; 4696884.218028606 ; 4.0284310188631475E8 ; 6.347799240883328E8 ; 5.103172079213787E10 ; 48078.89999999994
136 ; 4696435.82379869 ; 4.028561502601594E8 ; 6.394768083063614E8 ; 5.1434563894024185E10 ; 48435.03999999994
137 ; 4693743.241992813 ; 4.0286918126188743E8 ; 6.441732441301601E8 ; 5.183742004428435E10 ; 48791.17999999994
138 ; 4692451.894178093 ; 4.028821942051586E8 ; 6.488669873721529E8 ; 5.2240289225546234E10 ; 49147.31999999994
139 ; 4690770.358793264 ; 4.0289518841451365E8 ; 6.535594392663311E8 ; 5.2643171419751396E10 ; 49503.45999999994
140 ; 4686396.526560393 ; 4.0290816322508895E8 ; 6.582502096251243E8 ; 5.304606660816591E10 ; 49859.59999999994
141 ; 4685249.33571481 ; 4.0292111798233926E8 ; 6.629366061516848E8 ; 5.3448974771391E10 ; 50215.73999999994
142 ; 4685001.836213309 ; 4.0293405204177E8 ; 6.676218554873996E8 ; 5.385189588937334E10 ; 50571.87999999994
143 ; 4680961.873144884 ; 4.0294696476867807E8 ; 6.723068573236129E8 ; 5.425482994141511E10 ; 50928.01999999994
144 ; 4678108.018231738 ; 4.029598555379013E8 ; 6.769878191967578E8 ; 5.4657776906183784E10 ; 51284.15999999994
145 ; 4678233.646636502 ; 4.02972723733575E8 ; 6.816659272149895E8 ; 5.506073676172169E10 ; 51640.29999999994
146 ; 4678629.347576773 ; 4.02985568748898E8 ; 6.86344160861626E8 ; 5.546370948545526E10 ; 51996.43999999994
147 ; 4676421.593303961 ; 4.029983899859048E8 ; 6.910227902092028E8 ; 5.586669505420416E10 ; 52352.579999999936
148 ; 4675454.010576743 ; 4.030111868552455E8 ; 6.956992118025067E8 ; 5.626969344419007E10 ; 52708.719999999936
149 ; 4677370.12973574 ; 4.0302395877597296E8 ; 7.003746658130834E8 ; 5.667270463104532E10 ; 53064.859999999935
150 ; 4674124.805128825 ; 4.0303670517533684E8 ; 7.050520359428191E8 ; 5.707572858982129E10 ; 53420.999999999935
151 ; 4673602.800316068 ; 4.030494254885839E8 ; 7.097261607479479E8 ; 5.747876529499663E10 ; 53777.139999999934
152 ; 4675142.942620114 ; 4.0306211915876466E8 ; 7.14399763548264E8 ; 5.7881814720485214E10 ; 54133.27999999993
153 ; 4672641.146720649 ; 4.0307478563654655E8 ; 7.190749064908842E8 ; 5.828487683964398E10 ; 54489.41999999993
154 ; 4673793.980117386 ; 4.030874243800329E8 ; 7.237475476376048E8 ; 5.8687951625280525E10 ; 54845.55999999993
155 ; 4674549.554759121 ; 4.0310003485458744E8 ; 7.284213416177223E8 ; 5.909103904966056E10 ; 55201.69999999993
156 ; 4670439.9644438205 ; 4.031126165326648E8 ; 7.330958911724814E8 ; 5.9494139084515144E10 ; 55557.83999999993
157 ; 4673226.265218919 ; 4.0312516889364564E8 ; 7.377663311369252E8 ; 5.9897251701047806E10 ; 55913.97999999993
158 ; 4672564.231855722 ; 4.03137691423678E8 ; 7.424395574021442E8 ; 6.030037686994145E10 ; 56270.11999999993
159 ; 4674711.137595688 ; 4.0315018361552274E8 ; 7.47112121634E8 ; 6.070351456136513E10 ; 56626.25999999993
160 ; 4673340.281449606 ; 4.031626449684043E8 ; 7.517868327715956E8 ; 6.110666474498065E10 ; 56982.39999999993
161 ; 4672418.665377035 ; 4.0317507498786616E8 ; 7.564601730530452E8 ; 6.150982738994906E10 ; 57338.53999999993
162 ; 4669476.674021877 ; 4.0318747318563044E8 ; 7.611325917184222E8 ; 6.191300246493693E10 ; 57694.67999999993
163 ; 4668683.919263136 ; 4.031998390794623E8 ; 7.65802068392444E8 ; 6.231618993812256E10 ; 58050.81999999993
164 ; 4667979.673702766 ; 4.032121721930386E8 ; 7.704707523117071E8 ; 6.271938977720202E10 ; 58406.95999999993
165 ; 4668141.784695789 ; 4.0322447205582005E8 ; 7.751387319854099E8 ; 6.312260194939506E10 ; 58763.099999999926
166 ; 4666278.794303216 ; 4.032367382029283E8 ; 7.798068737701056E8 ; 6.3525826421450874E10 ; 59119.239999999925
167 ; 4665987.514452714 ; 4.032489701750257E8 ; 7.844731525644088E8 ; 6.39290631596538E10 ; 59475.379999999925
168 ; 4663645.361444091 ; 4.032611675181999E8 ; 7.891391400788615E8 ; 6.433231212982883E10 ; 59831.519999999924
169 ; 4663265.067909506 ; 4.0327332978385097E8 ; 7.938027854403056E8 ; 6.473557329734703E10 ; 60187.65999999992
170 ; 4662223.16312383 ; 4.03285456528583E8 ; 7.984660505082151E8 ; 6.513884662713088E10 ; 60543.79999999992
171 ; 4664237.65535681 ; 4.032975473140981E8 ; 8.031282736713389E8 ; 6.554213208365946E10 ; 60899.93999999992
172 ; 4659650.565706054 ; 4.0330960170709443E8 ; 8.077925113266957E8 ; 6.594542963097356E10 ; 61256.07999999992
173 ; 4660816.194906281 ; 4.033216192791667E8 ; 8.124521618924017E8 ; 6.634873923268065E10 ; 61612.21999999992
174 ; 4659150.25297018 ; 4.033335996067102E8 ; 8.171129780873079E8 ; 6.6752060851959816E10 ; 61968.35999999992
175 ; 4659562.204186358 ; 4.0334554227082753E8 ; 8.217721283402781E8 ; 6.715539445156653E10 ; 62324.49999999992
176 ; 4663471.033303448 ; 4.0335744685723805E8 ; 8.264316905444645E8 ; 6.755873999383736E10 ; 62680.63999999992
177 ; 4663082.517858828 ; 4.033693129561906E8 ; 8.31095161577768E8 ; 6.7962097440694595E10 ; 63036.77999999992
