CSV File for the Network on Day 218
1 - Minute m 
2 - Power Consumed at minute m 
3 - Power Produced at minute m 
4 - Energy Consumed since the beginning of the day 
5 - Energy Produced since the beginning of the day 
6 - Energy Lost since the beginning of the day 
 
0 ; 485543.98703913984 ; 2.1057676673379427E8 ; 0.0 ; 0.0 ; 0.0
1 ; 489387.6563755042 ; 2.108804134981234E8 ; 485543.98703913984 ; 2.1057676673379427E8 ; 356.14
2 ; 494657.72176991333 ; 2.1180178262071115E8 ; 974931.6434146441 ; 4.214571802319177E8 ; 712.28
3 ; 499018.330768836 ; 2.1334089934844905E8 ; 1469589.3651845574 ; 6.332589628526288E8 ; 1068.42
4 ; 502240.9236915091 ; 2.1549778800546163E8 ; 1968607.6959533934 ; 8.465998622010779E8 ; 1424.56
5 ; 509494.3951693419 ; 2.182724714184811E8 ; 2470848.6196449026 ; 1.0620976502065396E9 ; 1780.6999999999998
6 ; 513644.3283467974 ; 2.216649703086341E8 ; 2980343.0148142446 ; 1.2803701216250207E9 ; 2136.8399999999997
7 ; 518410.02384854073 ; 2.2567530267992288E8 ; 3493987.343161042 ; 1.5020350919336548E9 ; 2492.9799999999996
8 ; 521752.11382164166 ; 2.303034832409218E8 ; 4012397.3670095825 ; 1.7277103946135776E9 ; 2849.1199999999994
9 ; 526143.0924123074 ; 2.3554952289929396E8 ; 4534149.4808312245 ; 1.9580138778544993E9 ; 3205.2599999999993
10 ; 529511.2752002381 ; 2.414134283674661E8 ; 5060292.573243532 ; 2.1935634007537932E9 ; 3561.399999999999
11 ; 534344.0792029611 ; 2.478952019116397E8 ; 5589803.848443771 ; 2.434976829121259E9 ; 3917.539999999999
12 ; 538780.4948613751 ; 2.549948412656132E8 ; 6124147.927646732 ; 2.682872031032899E9 ; 4273.679999999999
13 ; 541500.9484590044 ; 2.627123397169599E8 ; 6662928.4225081075 ; 2.937866872298512E9 ; 4629.82
14 ; 545959.3077852849 ; 2.7104768635801685E8 ; 7204429.370967112 ; 3.200579212015472E9 ; 4985.96
15 ; 550803.6950402422 ; 2.8000086648020947E8 ; 7750388.678752396 ; 3.471626898373489E9 ; 5342.1
16 ; 554451.906805382 ; 2.895718620795357E8 ; 8301192.373792638 ; 3.7516277648536983E9 ; 5698.240000000001
17 ; 557683.7157184681 ; 2.997606524348688E8 ; 8855644.28059802 ; 4.041199626933234E9 ; 6054.380000000001
18 ; 560540.9552701628 ; 3.105672147194766E8 ; 9413327.996316489 ; 4.340960279368103E9 ; 6410.520000000001
19 ; 565702.99475041 ; 3.2199152460923445E8 ; 9973868.951586653 ; 4.65152749408758E9 ; 6766.660000000002
20 ; 569983.5913743144 ; 3.340335568572509E8 ; 1.0539571946337063E7 ; 4.973519018696815E9 ; 7122.800000000002
21 ; 571513.7864466589 ; 3.4669328581257963E8 ; 1.1109555537711378E7 ; 5.307552575554066E9 ; 7478.940000000002
22 ; 576475.7573193824 ; 3.59970685868992E8 ; 1.1681069324158037E7 ; 5.654245861366646E9 ; 7835.080000000003
23 ; 579963.8167374138 ; 3.738657318373765E8 ; 1.2257545081477419E7 ; 6.014216547235638E9 ; 8191.220000000003
24 ; 583655.1187741659 ; 3.8837839924154925E8 ; 1.2837508898214832E7 ; 6.388082279073014E9 ; 8547.360000000002
25 ; 587950.4883143881 ; 4.0088474633821857E8 ; 1.3421164016988998E7 ; 6.776460678314564E9 ; 8903.500000000002
26 ; 593722.8457240599 ; 4.008918463495059E8 ; 1.4009114505303387E7 ; 7.177345424652782E9 ; 9259.640000000001
27 ; 596651.0182737401 ; 4.0089921661554277E8 ; 1.4602837351027446E7 ; 7.578237271002289E9 ; 9615.78
28 ; 600737.4884286996 ; 4.009068371442824E8 ; 1.5199488369301185E7 ; 7.979136487617831E9 ; 9971.92
29 ; 602583.1618989253 ; 4.009146892168639E8 ; 1.5800225857729884E7 ; 8.380043324762114E9 ; 10328.06
30 ; 607292.0013412233 ; 4.0092275537744534E8 ; 1.640280901962881E7 ; 8.780958013978977E9 ; 10684.199999999999
31 ; 609391.2119019467 ; 4.00931019401314E8 ; 1.701010102097003E7 ; 9.181880769356422E9 ; 11040.339999999998
32 ; 614377.0887260921 ; 4.0093946624745286E8 ; 1.761949223287198E7 ; 9.582811788757736E9 ; 11396.479999999998
33 ; 617353.7148346329 ; 4.0094808200063634E8 ; 1.823386932159807E7 ; 9.98375125500519E9 ; 11752.619999999997
34 ; 620773.2526897802 ; 4.0095685380709755E8 ; 1.8851223036432706E7 ; 1.0384699337005827E10 ; 12108.759999999997
35 ; 624835.51616559 ; 4.0096576980691206E8 ; 1.9471996289122485E7 ; 1.0785656190812925E10 ; 12464.899999999996
36 ; 627809.9455352499 ; 4.009748190654764E8 ; 2.0096831805288076E7 ; 1.1186621960619837E10 ; 12821.039999999995
37 ; 630365.3275549719 ; 4.009839915058287E8 ; 2.0724641750823326E7 ; 1.1587596779685314E10 ; 13177.179999999995
38 ; 632333.741542748 ; 4.009932778430505E8 ; 2.1355007078378297E7 ; 1.1988580771191143E10 ; 13533.319999999994
39 ; 636970.896748558 ; 4.0100266952158666E8 ; 2.1987340819921046E7 ; 1.2389574049034193E10 ; 13889.459999999994
40 ; 638742.2038430786 ; 4.0101215865601164E8 ; 2.2624311716669604E7 ; 1.279057671855578E10 ; 14245.599999999993
41 ; 645106.1888649082 ; 4.0102173797553366E8 ; 2.3263053920512684E7 ; 1.3191588877211792E10 ; 14601.739999999993
42 ; 645945.5648389664 ; 4.010314007723559E8 ; 2.3908160109377593E7 ; 1.3592610615187326E10 ; 14957.879999999992
43 ; 648077.1691139848 ; 4.010411408538869E8 ; 2.455410567421656E7 ; 1.3993642015959682E10 ; 15314.019999999991
44 ; 651795.1822208633 ; 4.010509524987037E8 ; 2.5202182843330547E7 ; 1.439468315681357E10 ; 15670.15999999999
45 ; 652893.8225975924 ; 4.010608304161135E8 ; 2.5853978025551412E7 ; 1.4795734109312273E10 ; 16026.29999999999
46 ; 657489.9921276972 ; 4.010707697091188E8 ; 2.6506871848149005E7 ; 1.5196794939728386E10 ; 16382.43999999999
47 ; 658614.7399691308 ; 4.010807658405735E8 ; 2.7164361840276703E7 ; 1.5597865709437504E10 ; 16738.57999999999
48 ; 662119.5704105052 ; 4.010908146023045E8 ; 2.7822976580245834E7 ; 1.5998946475278078E10 ; 17094.71999999999
49 ; 665871.5532873919 ; 4.011009120869742E8 ; 2.848509615065634E7 ; 1.6400037289880383E10 ; 17450.85999999999
50 ; 667799.7646522898 ; 4.011110546624634E8 ; 2.915096770394373E7 ; 1.6801138201967358E10 ; 17806.99999999999
51 ; 668600.2990666431 ; 4.0112123894856346E8 ; 2.981876746859602E7 ; 1.720224925662982E10 ; 18163.13999999999
52 ; 672138.0124339832 ; 4.011314617957772E8 ; 3.0487367767662663E7 ; 1.7603370495578384E10 ; 18519.279999999988
53 ; 672572.8609267321 ; 4.011417202660414E8 ; 3.1159505780096646E7 ; 1.800450195737416E10 ; 18875.419999999987
54 ; 676308.8475912749 ; 4.0115201161519647E8 ; 3.183207864102338E7 ; 1.84056436776402E10 ; 19231.559999999987
55 ; 677303.0926051008 ; 4.011623332770426E8 ; 3.2508387488614652E7 ; 1.8806795689255398E10 ; 19587.699999999986
56 ; 679958.3273843518 ; 4.0117268284883624E8 ; 3.318569058121975E7 ; 1.920795802253244E10 ; 19943.839999999986
57 ; 682479.4268576849 ; 4.011830580780896E8 ; 3.38656489086041E7 ; 1.9609130705381275E10 ; 20299.979999999985
58 ; 683951.2621618079 ; 4.011934568505535E8 ; 3.454812833546179E7 ; 2.0010313763459366E10 ; 20656.119999999984
59 ; 685976.686368494 ; 4.012038771792692E8 ; 3.5232079597623594E7 ; 2.041150722030992E10 ; 21012.259999999984
60 ; 689599.5016122641 ; 4.0121431719459033E8 ; 3.591805628399209E7 ; 2.081271109748919E10 ; 21368.399999999983
61 ; 692515.1449095678 ; 4.0122477513508177E8 ; 3.660765578560435E7 ; 2.121392541468378E10 ; 21724.539999999983
62 ; 693926.1359612418 ; 4.0123524933921313E8 ; 3.730017093051392E7 ; 2.1615150189818863E10 ; 22080.679999999982
63 ; 695408.5909430624 ; 4.012457382377726E8 ; 3.799409706647516E7 ; 2.2016385439158077E10 ; 22436.81999999998
64 ; 695737.9382093665 ; 4.012562403469329E8 ; 3.868950565741822E7 ; 2.241763117739585E10 ; 22792.95999999998
65 ; 701910.2039371683 ; 4.012667542619083E8 ; 3.938524359562759E7 ; 2.2818887417742783E10 ; 23149.09999999998
66 ; 702866.0316487774 ; 4.0127727865114844E8 ; 4.008715379956476E7 ; 2.3220154172004692E10 ; 23505.23999999998
67 ; 705251.1335051882 ; 4.012878122510187E8 ; 4.0790019831213534E7 ; 2.362143145065584E10 ; 23861.37999999998
68 ; 707337.3481235458 ; 4.0129835386092263E8 ; 4.149527096471872E7 ; 2.402271926290686E10 ; 24217.51999999998
69 ; 708501.8446482437 ; 4.0130890233882606E8 ; 4.2202608312842265E7 ; 2.4424017616767784E10 ; 24573.659999999978
70 ; 710568.216187055 ; 4.0131945659714603E8 ; 4.291111015749051E7 ; 2.482532651910661E10 ; 24929.799999999977
71 ; 712640.7840413108 ; 4.0133001559897244E8 ; 4.362167837367756E7 ; 2.5226645975703754E10 ; 25285.939999999977
72 ; 714129.3823427246 ; 4.013405783545922E8 ; 4.433431915771887E7 ; 2.5627975991302727E10 ; 25642.079999999976
73 ; 716506.1135913421 ; 4.013511439182884E8 ; 4.504844854006159E7 ; 2.602931656965732E10 ; 25998.219999999976
74 ; 716234.9039085213 ; 4.013617113853917E8 ; 4.5764954653652936E7 ; 2.6430667713575607E10 ; 26354.359999999975
75 ; 718743.3236400736 ; 4.013722798895606E8 ; 4.648118955756146E7 ; 2.6832029424961E10 ; 26710.499999999975
76 ; 719656.7767648594 ; 4.0138284860027146E8 ; 4.719993288120153E7 ; 2.723340170485056E10 ; 27066.639999999974
77 ; 720820.679047473 ; 4.013934167205001E8 ; 4.791958965796639E7 ; 2.7634784553450832E10 ; 27422.779999999973
78 ; 722960.926706977 ; 4.014039834845785E8 ; 4.864041033701386E7 ; 2.8036177970171333E10 ; 27778.919999999973
79 ; 726182.6544668298 ; 4.014145481562117E8 ; 4.936337126372084E7 ; 2.843758195365591E10 ; 28135.059999999972
80 ; 726811.1015723661 ; 4.014251100266418E8 ; 5.008955391818767E7 ; 2.8838996501812122E10 ; 28491.19999999997
81 ; 728838.9173346641 ; 4.014356684129472E8 ; 5.0816365019760035E7 ; 2.9240421611838764E10 ; 28847.33999999997
82 ; 730625.435811708 ; 4.014462226564646E8 ; 5.1545203937094696E7 ; 2.9641857280251713E10 ; 29203.47999999997
83 ; 732326.6841328688 ; 4.0145677212132525E8 ; 5.22758293729064E7 ; 3.0043303502908176E10 ; 29559.61999999997
84 ; 733627.0591023542 ; 4.014673161930952E8 ; 5.300815605703927E7 ; 3.0444760275029503E10 ; 29915.75999999997
85 ; 736764.7228507171 ; 4.014778542775119E8 ; 5.3741783116141625E7 ; 3.08462275912226E10 ; 30271.89999999997
86 ; 737693.2016346649 ; 4.014883857993088E8 ; 5.447854783899234E7 ; 3.124770544550011E10 ; 30628.039999999968
87 ; 739423.9842684893 ; 4.014989102011217E8 ; 5.521624104062701E7 ; 3.164919383129942E10 ; 30984.179999999968
88 ; 741896.475758208 ; 4.0150942694246984E8 ; 5.59556650248955E7 ; 3.205069274150054E10 ; 31340.319999999967
89 ; 741891.7604250452 ; 4.015199354988067E8 ; 5.669756150065371E7 ; 3.2452202168443012E10 ; 31696.459999999966
90 ; 744900.6747268058 ; 4.0153043536063445E8 ; 5.743945326107875E7 ; 3.285372210394182E10 ; 32052.599999999966
91 ; 745086.6120400393 ; 4.015409260326773E8 ; 5.818435393580556E7 ; 3.3255252539302452E10 ; 32408.739999999965
92 ; 746737.6682163065 ; 4.015514070331099E8 ; 5.89294405478456E7 ; 3.365679346533513E10 ; 32764.879999999965
93 ; 747583.8410973648 ; 4.015618778928361E8 ; 5.9676178216061905E7 ; 3.405834487236824E10 ; 33121.01999999997
94 ; 750067.2991560232 ; 4.0157233815481454E8 ; 6.042376205715927E7 ; 3.445990675026108E10 ; 33477.15999999997
95 ; 750931.7124144265 ; 4.0158278737342775E8 ; 6.117382935631529E7 ; 3.486147908841589E10 ; 33833.29999999997
96 ; 749304.5411328026 ; 4.0159322511389124E8 ; 6.192476106872972E7 ; 3.526306187578932E10 ; 34189.439999999966
97 ; 751060.6109862278 ; 4.016036509516999E8 ; 6.267406560986252E7 ; 3.566465510090321E10 ; 34545.579999999965
98 ; 753004.6931270012 ; 4.016140644721098E8 ; 6.342512622084875E7 ; 3.606625875185491E10 ; 34901.719999999965
99 ; 754261.3160869995 ; 4.0162446526965094E8 ; 6.4178130913975745E7 ; 3.646787281632702E10 ; 35257.859999999964
100 ; 754513.331111254 ; 4.0163485294767106E8 ; 6.4932392230062746E7 ; 3.686949728159667E10 ; 35613.99999999996
101 ; 759066.4881668827 ; 4.016452271179068E8 ; 6.5686905561174E7 ; 3.727113213454434E10 ; 35970.13999999996
102 ; 758157.0935188162 ; 4.0165558740008104E8 ; 6.644597204934088E7 ; 3.767277736166225E10 ; 36326.27999999996
103 ; 758898.2267098938 ; 4.0166593342152387E8 ; 6.72041291428597E7 ; 3.8074432949062325E10 ; 36682.41999999996
104 ; 761073.1501620536 ; 4.0167626481681687E8 ; 6.796302736956958E7 ; 3.847609888248385E10 ; 37038.55999999996
105 ; 761674.1190716637 ; 4.01686581227458E8 ; 6.872410051973164E7 ; 3.887777514730067E10 ; 37394.69999999996
106 ; 764128.208299624 ; 4.0169688230154586E8 ; 6.94857746388033E7 ; 3.927946172852812E10 ; 37750.83999999996
107 ; 765935.3914917209 ; 4.01707167693483E8 ; 7.024990284710293E7 ; 3.9681158610829666E10 ; 38106.97999999996
108 ; 765496.2457914883 ; 4.017174370636953E8 ; 7.101583823859465E7 ; 4.008286577852315E10 ; 38463.11999999996
109 ; 767677.9751749452 ; 4.017276900783684E8 ; 7.178133448438615E7 ; 4.0484583215586845E10 ; 38819.25999999996
110 ; 767018.9354590481 ; 4.0173792640919864E8 ; 7.25490124595611E7 ; 4.0886310905665215E10 ; 39175.39999999996
111 ; 768252.9586345946 ; 4.017481457331575E8 ; 7.331603139502014E7 ; 4.128804883207441E10 ; 39531.53999999996
112 ; 769819.617922891 ; 4.017583477322704E8 ; 7.408428435365474E7 ; 4.168979697780756E10 ; 39887.67999999996
113 ; 770740.1822166172 ; 4.017685320934065E8 ; 7.485410397157763E7 ; 4.209155532553983E10 ; 40243.819999999956
114 ; 770377.5565519135 ; 4.0177869850808084E8 ; 7.562484415379424E7 ; 4.249332385763324E10 ; 40599.959999999955
115 ; 771689.8661743638 ; 4.0178884667226696E8 ; 7.639522171034616E7 ; 4.289510255614132E10 ; 40956.099999999955
116 ; 772388.0517429835 ; 4.017989762862201E8 ; 7.716691157652053E7 ; 4.329689140281358E10 ; 41312.239999999954
117 ; 772566.4135242073 ; 4.01809087054309E8 ; 7.793929962826352E7 ; 4.36986903790998E10 ; 41668.379999999954
118 ; 773322.9699373329 ; 4.018191786848578E8 ; 7.871186604178773E7 ; 4.4100499466154106E10 ; 42024.51999999995
119 ; 776026.0407821694 ; 4.018292508899956E8 ; 7.948518901172507E7 ; 4.450231864483897E10 ; 42380.65999999995
120 ; 776061.0988549324 ; 4.01839303385514E8 ; 8.026121505250724E7 ; 4.490414789572896E10 ; 42736.79999999995
121 ; 777356.6008253257 ; 4.0184933589073265E8 ; 8.103727615136217E7 ; 4.530598719911447E10 ; 43092.93999999995
122 ; 778693.0837910478 ; 4.018593481283709E8 ; 8.181463275218749E7 ; 4.57078365350052E10 ; 43449.07999999995
123 ; 777911.5918625293 ; 4.01869339824427E8 ; 8.259332583597854E7 ; 4.6109695883133575E10 ; 43805.21999999995
124 ; 778640.7628970409 ; 4.018793107080629E8 ; 8.337123742784107E7 ; 4.6511565222958E10 ; 44161.35999999995
125 ; 777498.8477440292 ; 4.018892605114949E8 ; 8.414987819073811E7 ; 4.691344453366606E10 ; 44517.49999999995
126 ; 777030.2711560196 ; 4.018991889698904E8 ; 8.492737703848214E7 ; 4.731533379417756E10 ; 44873.63999999995
127 ; 777383.586966179 ; 4.019090958212693E8 ; 8.570440730963816E7 ; 4.7717232983147446E10 ; 45229.77999999995
128 ; 776150.1490765115 ; 4.019189808064104E8 ; 8.648179089660433E7 ; 4.811914207896871E10 ; 45585.91999999995
129 ; 776836.7609063383 ; 4.019288436687628E8 ; 8.725794104568084E7 ; 4.852106105977512E10 ; 45942.05999999995
130 ; 777000.4657237518 ; 4.019386841543616E8 ; 8.803477780658717E7 ; 4.8922989903443886E10 ; 46298.199999999946
131 ; 774315.0156932821 ; 4.019485020117471E8 ; 8.881177827231093E7 ; 4.932492858759824E10 ; 46654.339999999946
132 ; 775470.5281713291 ; 4.0195829699188906E8 ; 8.95860932880042E7 ; 4.972687708960999E10 ; 47010.479999999945
133 ; 775918.4789061188 ; 4.0196806884811354E8 ; 9.036156381617554E7 ; 5.012883538660188E10 ; 47366.619999999944
134 ; 777253.9412464583 ; 4.019778173360343E8 ; 9.113748229508166E7 ; 5.053080345545E10 ; 47722.759999999944
135 ; 776953.3641080778 ; 4.0198754221348655E8 ; 9.191473623632812E7 ; 5.093278127278603E10 ; 48078.89999999994
136 ; 776235.6692930836 ; 4.019972432404646E8 ; 9.26916896004362E7 ; 5.133476881499952E10 ; 48435.03999999994
137 ; 777539.7669671384 ; 4.0200692017906237E8 ; 9.346792526972929E7 ; 5.173676605823998E10 ; 48791.17999999994
138 ; 778440.662621992 ; 4.0201657279341614E8 ; 9.424546503669642E7 ; 5.2138772978419044E10 ; 49147.31999999994
139 ; 778106.3171317271 ; 4.0202620084965056E8 ; 9.502390569931841E7 ; 5.254078955121246E10 ; 49503.45999999994
140 ; 779669.891063581 ; 4.0203580411582744E8 ; 9.580201201645014E7 ; 5.294281575206211E10 ; 49859.59999999994
141 ; 778768.7023250038 ; 4.0204538236189616E8 ; 9.658168190751372E7 ; 5.334485155617794E10 ; 50215.73999999994
142 ; 778463.4003759263 ; 4.020549353596468E8 ; 9.736045060983872E7 ; 5.374689693853983E10 ; 50571.87999999994
143 ; 778350.2576574004 ; 4.020644628826659E8 ; 9.813891401021466E7 ; 5.414895187389948E10 ; 50928.01999999994
144 ; 777444.7461951778 ; 4.020739647062931E8 ; 9.891726426787205E7 ; 5.455101633678215E10 ; 51284.15999999994
145 ; 779993.0114130082 ; 4.0208344060758126E8 ; 9.969470901406723E7 ; 5.495309030148844E10 ; 51640.29999999994
146 ; 781052.1035102287 ; 4.0209289036525714E8 ; 1.0047470202548024E8 ; 5.535517374209602E10 ; 51996.43999999994
147 ; 781537.9772938319 ; 4.021023137596844E8 ; 1.0125575412899047E8 ; 5.575726663246128E10 ; 52352.579999999936
148 ; 784120.0335225544 ; 4.021117105728285E8 ; 1.020372921062843E8 ; 5.615936894622096E10 ; 52708.719999999936
149 ; 785698.0595881615 ; 4.021210805882228E8 ; 1.0282141213980687E8 ; 5.656148065679379E10 ; 53064.859999999935
150 ; 790189.6997909583 ; 4.021304235909364E8 ; 1.0360711019939503E8 ; 5.696360173738202E10 ; 53420.999999999935
151 ; 790124.3223175937 ; 4.021397393675436E8 ; 1.0439729989918599E8 ; 5.736573216097295E10 ; 53777.139999999934
152 ; 791281.4661896166 ; 4.0214902770609397E8 ; 1.0518742422150359E8 ; 5.77678719003405E10 ; 54133.27999999993
153 ; 793011.3153702208 ; 4.021582883960849E8 ; 1.0597870568769321E8 ; 5.817002092804659E10 ; 54489.41999999993
154 ; 794127.0233710725 ; 4.021675212284347E8 ; 1.0677171700306343E8 ; 5.857217921644268E10 ; 54845.55999999993
155 ; 798357.3521787144 ; 4.0217672599545646E8 ; 1.075658440264345E8 ; 5.897434673767111E10 ; 55201.69999999993
156 ; 798947.2521054065 ; 4.021859024908346E8 ; 1.083642013786132E8 ; 5.9376523463666565E10 ; 55557.83999999993
157 ; 802100.733065052 ; 4.021950505096005E8 ; 1.091631486307186E8 ; 5.97787093661574E10 ; 55913.97999999993
158 ; 803860.0084917643 ; 4.022041698481109E8 ; 1.0996524936378366E8 ; 6.0180904416667E10 ; 56270.11999999993
159 ; 806761.51766337 ; 4.0221326030402637E8 ; 1.1076910937227543E8 ; 6.0583108586515114E10 ; 56626.25999999993
160 ; 807568.3307672233 ; 4.022223216762907E8 ; 1.115758708899388E8 ; 6.098532184681914E10 ; 56982.39999999993
161 ; 809201.9879364435 ; 4.022313537651116E8 ; 1.1238343922070603E8 ; 6.138754416849543E10 ; 57338.53999999993
162 ; 810817.6167053155 ; 4.0224035637194234E8 ; 1.1319264120864247E8 ; 6.1789775522260544E10 ; 57694.67999999993
163 ; 811864.9591314977 ; 4.022493292994634E8 ; 1.1400345882534778E8 ; 6.2192015878632484E10 ; 58050.81999999993
164 ; 813824.440554315 ; 4.022582723515661E8 ; 1.1481532378447928E8 ; 6.2594265207931946E10 ; 58406.95999999993
165 ; 814350.8841366943 ; 4.0226718533333576E8 ; 1.156291482250336E8 ; 6.299652348028351E10 ; 58763.099999999926
166 ; 815972.7473042412 ; 4.022760680510368E8 ; 1.1644349910917029E8 ; 6.3398790665616844E10 ; 59119.239999999925
167 ; 817170.1325690986 ; 4.0228492031209713E8 ; 1.1725947185647453E8 ; 6.380106673366788E10 ; 59475.379999999925
168 ; 817881.6571255873 ; 4.022937419250948E8 ; 1.1807664198904364E8 ; 6.420335165397997E10 ; 59831.519999999924
169 ; 820208.1299899631 ; 4.0230253269974375E8 ; 1.1889452364616923E8 ; 6.460564539590507E10 ; 60187.65999999992
170 ; 823738.3957777659 ; 4.023112924468814E8 ; 1.197147317761592E8 ; 6.500794792860481E10 ; 60543.79999999992
171 ; 825946.2879256902 ; 4.023200209784558E8 ; 1.2053847017193696E8 ; 6.54102592210517E10 ; 60899.93999999992
172 ; 825290.3231235907 ; 4.02328718107514E8 ; 1.2136441645986265E8 ; 6.581257924203015E10 ; 61256.07999999992
173 ; 828167.7788384279 ; 4.0233738364819115E8 ; 1.2218970678298624E8 ; 6.6214907960137665E10 ; 61612.21999999992
174 ; 829832.7574158896 ; 4.0234601741569895E8 ; 1.2301787456182466E8 ; 6.661724534378586E10 ; 61968.35999999992
175 ; 834203.5820304516 ; 4.0235461922631586E8 ; 1.2384770731924056E8 ; 6.701959136120155E10 ; 62324.49999999992
176 ; 834426.9451800938 ; 4.023631888973772E8 ; 1.24681910901271E8 ; 6.742194598042787E10 ; 62680.63999999992
177 ; 837691.3715358136 ; 4.023717262472656E8 ; 1.2551633784645109E8 ; 6.782430916932525E10 ; 63036.77999999992
