CSV File for the Network on Day 202
1 - Minute m 
2 - Power Consumed at minute m 
3 - Power Produced at minute m 
4 - Energy Consumed since the beginning of the day 
5 - Energy Produced since the beginning of the day 
6 - Energy Lost since the beginning of the day 
 
0 ; 569075.4276898174 ; 2.107790393178568E8 ; 0.0 ; 0.0 ; 0.0
1 ; 572568.2778047972 ; 2.110844105279675E8 ; 569075.4276898174 ; 2.107790393178568E8 ; 356.14
2 ; 576997.8326290018 ; 2.120073891754099E8 ; 1141643.7054946146 ; 4.218634498458243E8 ; 712.28
3 ; 581705.6649584157 ; 2.1354798187289995E8 ; 1718641.5381236165 ; 6.338708390212343E8 ; 1068.42
4 ; 583992.255952302 ; 2.1570619463785058E8 ; 2300347.203082032 ; 8.474188208941343E8 ; 1424.56
5 ; 591355.8707473379 ; 2.184820328296579E8 ; 2884339.459034334 ; 1.0631250155319848E9 ; 1780.6999999999998
6 ; 596919.8484256953 ; 2.2187550109167606E8 ; 3475695.329781672 ; 1.2816070483616428E9 ; 2136.8399999999997
7 ; 599309.9234803257 ; 2.25886603299277E8 ; 4072615.178207367 ; 1.5034825494533188E9 ; 2492.9799999999996
8 ; 604306.5919326579 ; 2.3051534251530606E8 ; 4671925.101687693 ; 1.729369152752596E9 ; 2849.1199999999994
9 ; 609838.6783850457 ; 2.357617209541018E8 ; 5276231.693620351 ; 1.959884495267902E9 ; 3205.2599999999993
10 ; 611165.0382631323 ; 2.416257399550565E8 ; 5886070.3720053965 ; 2.195646216222004E9 ; 3561.399999999999
11 ; 614285.9429451893 ; 2.4810739996644753E8 ; 6497235.410268528 ; 2.4372719561770606E9 ; 3917.539999999999
12 ; 619633.7608890242 ; 2.5520670053999746E8 ; 7111521.353213718 ; 2.685379356143508E9 ; 4273.679999999999
13 ; 622737.4209149301 ; 2.6292364033631402E8 ; 7731155.114102743 ; 2.9405860566835055E9 ; 4629.82
14 ; 627765.3496692746 ; 2.712582171410588E8 ; 8353892.535017673 ; 3.2035096970198197E9 ; 4985.96
15 ; 630318.504924579 ; 2.802104278913863E8 ; 8981657.884686947 ; 3.4747679141608787E9 ; 5342.1
16 ; 635024.7889518894 ; 2.897802687119247E8 ; 9611976.389611525 ; 3.754978342052265E9 ; 5698.240000000001
17 ; 638942.6835883629 ; 2.999677349593197E8 ; 1.0247001178563414E7 ; 4.0447586107641897E9 ; 6054.380000000001
18 ; 643133.6739321853 ; 3.1077282127417535E8 ; 1.0885943862151777E7 ; 4.34472634572351E9 ; 6410.520000000001
19 ; 647096.9831617007 ; 3.221955216390786E8 ; 1.1529077536083963E7 ; 4.655499166997685E9 ; 6766.660000000002
20 ; 649264.9078528376 ; 3.342358294413135E8 ; 1.2176174519245664E7 ; 4.977694688636765E9 ; 7122.800000000002
21 ; 651694.6893463439 ; 3.4689373753884125E8 ; 1.2825439427098501E7 ; 5.311930518078078E9 ; 7478.940000000002
22 ; 658029.5943834395 ; 3.60169238328148E8 ; 1.3477134116444845E7 ; 5.6588242556169195E9 ; 7835.080000000003
23 ; 661157.1124728515 ; 3.740623238126349E8 ; 1.4135163710828284E7 ; 6.018993493945067E9 ; 8191.220000000003
24 ; 663124.5908627771 ; 3.8857298567033166E8 ; 1.4796320823301135E7 ; 6.393055817757702E9 ; 8547.360000000002
25 ; 669686.7970619693 ; 4.010772971162257E8 ; 1.5459445414163912E7 ; 6.781628803428034E9 ; 8903.500000000002
26 ; 671976.5676098827 ; 4.010823450393412E8 ; 1.612913221122588E7 ; 7.18270610054426E9 ; 9259.640000000001
27 ; 676218.4725118986 ; 4.010876591124085E8 ; 1.6801108778835762E7 ; 7.583788445583601E9 ; 9615.78
28 ; 677627.6120559552 ; 4.0109323034126174E8 ; 1.747732725134766E7 ; 7.98487610469601E9 ; 9971.92
29 ; 681477.9716554566 ; 4.010990497027528E8 ; 1.8154954863403615E7 ; 8.3859693350372715E9 ; 10328.06
30 ; 687270.484547513 ; 4.011051081914773E8 ; 1.8836432835059073E7 ; 8.787068384740025E9 ; 10684.199999999999
31 ; 690313.3841234981 ; 4.0111139686167216E8 ; 1.9523703319606587E7 ; 9.188173492931501E9 ; 11040.339999999998
32 ; 695387.2639185911 ; 4.011179068642725E8 ; 2.0214016703730084E7 ; 9.589284889793173E9 ; 11396.479999999998
33 ; 698018.3586494699 ; 4.011246294792168E8 ; 2.0909403967648674E7 ; 9.990402796657446E9 ; 11752.619999999997
34 ; 700441.3168520861 ; 4.011315561431696E8 ; 2.1607422326298144E7 ; 1.0391527426136663E10 ; 12108.759999999997
35 ; 702478.4243578535 ; 4.011386784728949E8 ; 2.230786364315023E7 ; 1.0792658982279833E10 ; 12464.899999999996
36 ; 707426.9883265124 ; 4.011459882845589E8 ; 2.3010342067508083E7 ; 1.1193797660752728E10 ; 12821.039999999995
37 ; 710951.3423174308 ; 4.0115347760927117E8 ; 2.3717769055834595E7 ; 1.1594943649037287E10 ; 13177.179999999995
38 ; 713364.5581367917 ; 4.0116113870519227E8 ; 2.4428720398152027E7 ; 1.1996097126646559E10 ; 13533.319999999994
39 ; 716101.7243281223 ; 4.0116896406654143E8 ; 2.514208495628882E7 ; 1.2397258265351751E10 ; 13889.459999999994
40 ; 718713.1969698002 ; 4.0117694642983663E8 ; 2.585818668061694E7 ; 1.2798427229418293E10 ; 14245.599999999993
41 ; 720856.613247603 ; 4.011850787776897E8 ; 2.657689987758674E7 ; 1.319960417584813E10 ; 14601.739999999993
42 ; 723595.4314788687 ; 4.011933543404639E8 ; 2.7297756490834344E7 ; 1.3600789254625818E10 ; 14957.879999999992
43 ; 728233.896228362 ; 4.012017665960851E8 ; 2.8021351922313213E7 ; 1.4001982608966282E10 ; 15314.019999999991
44 ; 729310.0172991002 ; 4.012103092682739E8 ; 2.8749585818541575E7 ; 1.4403184375562366E10 ; 15670.15999999999
45 ; 733011.3359217382 ; 4.012189763234471E8 ; 2.9478895835840676E7 ; 1.480439468483064E10 ; 16026.29999999999
46 ; 736785.2282630999 ; 4.012277619665109E8 ; 3.0211907171762414E7 ; 1.5205613661154087E10 ; 16382.43999999999
47 ; 738895.9828631626 ; 4.012366606357477E8 ; 3.0948692400025513E7 ; 1.5606841423120598E10 ; 16738.57999999999
48 ; 741018.7976764406 ; 4.01245666996977E8 ; 3.1687588382888675E7 ; 1.6008078083756346E10 ; 17094.71999999999
49 ; 745548.2519867165 ; 4.012547759371462E8 ; 3.2428607180565115E7 ; 1.6409323750753323E10 ; 17450.85999999999
50 ; 745416.506574587 ; 4.012639825574926E8 ; 3.317415543255183E7 ; 1.6810578526690468E10 ; 17806.99999999999
51 ; 747953.307957783 ; 4.012732821663954E8 ; 3.391957193912642E7 ; 1.721184250924796E10 ; 18163.13999999999
52 ; 748643.0856590885 ; 4.012826702720226E8 ; 3.46675252470842E7 ; 1.7613115791414356E10 ; 18519.279999999988
53 ; 749747.9386450842 ; 4.012921425748601E8 ; 3.541616833274329E7 ; 1.801439846168638E10 ; 18875.419999999987
54 ; 753754.4468976851 ; 4.013016949602001E8 ; 3.6165916271388374E7 ; 1.841569060426124E10 ; 19231.559999999987
55 ; 753712.8036306113 ; 4.0131132349064934E8 ; 3.691967071828606E7 ; 1.881699229922144E10 ; 19587.699999999986
56 ; 755024.1604343918 ; 4.01321024398712E8 ; 3.767338352191667E7 ; 1.921830362271209E10 ; 19943.839999999986
57 ; 757977.4842864927 ; 4.013307940794868E8 ; 3.842840768235107E7 ; 1.96196246471108E10 ; 20299.979999999985
58 ; 759533.9582829025 ; 4.0134062908351624E8 ; 3.918638516663756E7 ; 2.002095544119029E10 ; 20656.119999999984
59 ; 762990.3712771593 ; 4.0135052610981226E8 ; 3.9945919124920465E7 ; 2.0422296070273804E10 ; 21012.259999999984
60 ; 767074.4280703205 ; 4.0136048199908155E8 ; 4.0708909496197626E7 ; 2.0823646596383617E10 ; 21368.399999999983
61 ; 767080.7172881914 ; 4.013704937271646E8 ; 4.147598392426795E7 ; 2.1225007078382698E10 ; 21724.539999999983
62 ; 770390.0711111481 ; 4.013805583987014E8 ; 4.224306464155614E7 ; 2.1626377572109863E10 ; 22080.679999999982
63 ; 771690.3956893473 ; 4.0139067324103E8 ; 4.301345471266729E7 ; 2.2027758130508564E10 ; 22436.81999999998
64 ; 771974.8323350846 ; 4.014008355983225E8 ; 4.378514510835663E7 ; 2.2429148803749596E10 ; 22792.95999999998
65 ; 777573.7437146553 ; 4.0141104292596024E8 ; 4.455711994069172E7 ; 2.283054963934792E10 ; 23149.09999999998
66 ; 778128.0605312535 ; 4.014212927851477E8 ; 4.533469368440637E7 ; 2.323196068227388E10 ; 23505.23999999998
67 ; 781396.532188524 ; 4.014315828377619E8 ; 4.611282174493762E7 ; 2.363338197505903E10 ; 23861.37999999998
68 ; 784399.6345333109 ; 4.014419108414339E8 ; 4.689421827712615E7 ; 2.403481355789679E10 ; 24217.51999999998
69 ; 785177.9044247755 ; 4.014522746448576E8 ; 4.767861791165946E7 ; 2.4436255468738224E10 ; 24573.659999999978
70 ; 786276.0164685813 ; 4.0146267218331933E8 ; 4.8463795816084236E7 ; 2.4837707743383083E10 ; 24929.799999999977
71 ; 786312.5948775898 ; 4.014731014744419E8 ; 4.925007183255282E7 ; 2.5239170415566402E10 ; 25285.939999999977
72 ; 789979.5858185786 ; 4.014835606141354E8 ; 5.003638442743041E7 ; 2.5640643517040844E10 ; 25642.079999999976
73 ; 790027.9566500862 ; 4.014940477727487E8 ; 5.0826364013248995E7 ; 2.604212707765498E10 ; 25998.219999999976
74 ; 792841.3769296989 ; 4.0150456119141173E8 ; 5.161639196989908E7 ; 2.6443621125427727E10 ; 26354.359999999975
75 ; 792731.4084723073 ; 4.0151509917856246E8 ; 5.240923334682878E7 ; 2.6845125686619137E10 ; 26710.499999999975
76 ; 794529.5831493804 ; 4.0152566010665053E8 ; 5.320196475530109E7 ; 2.72466407857977E10 ; 27066.639999999974
77 ; 793458.8167536027 ; 4.015362424090085E8 ; 5.399649433845047E7 ; 2.764816644590435E10 ; 27422.779999999973
78 ; 796248.4561205336 ; 4.015468445768845E8 ; 5.478995315520407E7 ; 2.804970268831336E10 ; 27778.919999999973
79 ; 798484.5516117179 ; 4.015574651566276E8 ; 5.558620161132461E7 ; 2.8451249532890244E10 ; 28135.059999999972
80 ; 802862.2408432018 ; 4.015681027470195E8 ; 5.638468616293633E7 ; 2.885280699804687E10 ; 28491.19999999997
81 ; 805000.3551174637 ; 4.0157875599674433E8 ; 5.718754840377953E7 ; 2.925437510079389E10 ; 28847.33999999997
82 ; 804452.4657775734 ; 4.015894236019906E8 ; 5.799254875889699E7 ; 2.9655953856790638E10 ; 29203.47999999997
83 ; 807117.4460931432 ; 4.0160010430417776E8 ; 5.879700122467457E7 ; 3.0057543280392628E10 ; 29559.61999999997
84 ; 807156.8458911966 ; 4.016107968878019E8 ; 5.960411867076771E7 ; 3.0459143384696804E10 ; 29915.75999999997
85 ; 810127.2763150762 ; 4.0162150017839366E8 ; 6.041127551665891E7 ; 3.0860754181584606E10 ; 30271.89999999997
86 ; 810493.9962413857 ; 4.016322130405824E8 ; 6.122140279297399E7 ; 3.1262375681763E10 ; 30628.039999999968
87 ; 810824.7487567603 ; 4.0164293437626195E8 ; 6.203189678921537E7 ; 3.166400789480358E10 ; 30984.179999999968
88 ; 812422.316822985 ; 4.016536631228515E8 ; 6.284272153797213E7 ; 3.2065650829179844E10 ; 31340.319999999967
89 ; 815409.0736486269 ; 4.016643982516468E8 ; 6.365514385479511E7 ; 3.2467304492302696E10 ; 31696.459999999966
90 ; 814960.8395866852 ; 4.016751387662579E8 ; 6.447055292844374E7 ; 3.2868968890554344E10 ; 32052.599999999966
91 ; 816525.5549509628 ; 4.0168588370112646E8 ; 6.528551376803042E7 ; 3.3270644029320602E10 ; 32408.739999999965
92 ; 817796.8696574534 ; 4.01696632120121E8 ; 6.610203932298138E7 ; 3.367232991302173E10 ; 32764.879999999965
93 ; 820155.3585608724 ; 4.0170738311520386E8 ; 6.691983619263884E7 ; 3.407402654514185E10 ; 33121.01999999997
94 ; 819285.1734638182 ; 4.017181358051666E8 ; 6.77399915511997E7 ; 3.447573392825705E10 ; 33477.15999999997
95 ; 821947.5582825023 ; 4.017288893344312E8 ; 6.855927672466353E7 ; 3.487745206406222E10 ; 33833.29999999997
96 ; 819012.5892010325 ; 4.01739642871911E8 ; 6.938122428294604E7 ; 3.527918095339665E10 ; 34189.439999999966
97 ; 824278.8320161353 ; 4.017503956099309E8 ; 7.020023687214707E7 ; 3.568092059626856E10 ; 34545.579999999965
98 ; 823658.3641412373 ; 4.017611467632017E8 ; 7.102451570416321E7 ; 3.6082670991878494E10 ; 34901.719999999965
99 ; 825323.7291282677 ; 4.0177189556784654E8 ; 7.184817406830445E7 ; 3.648443213864169E10 ; 35257.859999999964
100 ; 825449.1714330171 ; 4.017826412804761E8 ; 7.267349779743272E7 ; 3.688620403420954E10 ; 35613.99999999996
101 ; 827237.8472486937 ; 4.0179338317731035E8 ; 7.349894696886574E7 ; 3.728798667549002E10 ; 35970.13999999996
102 ; 828181.5752250219 ; 4.018041205533439E8 ; 7.432618481611443E7 ; 3.768978005866733E10 ; 36326.27999999996
103 ; 830244.46286297 ; 4.018148527215533E8 ; 7.515436639133945E7 ; 3.809158417922067E10 ; 36682.41999999996
104 ; 831928.1405056051 ; 4.01825579012143E8 ; 7.598461085420242E7 ; 3.849339903194222E10 ; 37038.55999999996
105 ; 831430.7080503925 ; 4.0183629877182883E8 ; 7.681653899470803E7 ; 3.889522461095437E10 ; 37394.69999999996
106 ; 832750.7086955429 ; 4.018470113631564E8 ; 7.764796970275842E7 ; 3.92970609097262E10 ; 37750.83999999996
107 ; 833799.8524831972 ; 4.01857716163853E8 ; 7.848072041145396E7 ; 3.9698907921089355E10 ; 38106.97999999996
108 ; 837366.0176246674 ; 4.0186841256621087E8 ; 7.931452026393716E7 ; 4.010076563725321E10 ; 38463.11999999996
109 ; 835708.6887514376 ; 4.0187909997650003E8 ; 8.015188628156182E7 ; 4.050263404981942E10 ; 38819.25999999996
110 ; 837210.4438736198 ; 4.018897778144099E8 ; 8.098759497031327E7 ; 4.090451314979592E10 ; 39175.39999999996
111 ; 835899.8565094299 ; 4.019004455125172E8 ; 8.182480541418688E7 ; 4.130640292761033E10 ; 39531.53999999996
112 ; 837906.7983495562 ; 4.019111025157795E8 ; 8.266070527069631E7 ; 4.170830337312285E10 ; 39887.67999999996
113 ; 840365.9348073248 ; 4.019217482810522E8 ; 8.349861206904587E7 ; 4.2110214475638626E10 ; 40243.819999999956
114 ; 838386.8339510086 ; 4.019323822766293E8 ; 8.43389780038532E7 ; 4.251213622391968E10 ; 40599.959999999955
115 ; 839630.7210314303 ; 4.019430039818051E8 ; 8.517736483780421E7 ; 4.2914068606196304E10 ; 40956.099999999955
116 ; 839861.8063931058 ; 4.0195361288645595E8 ; 8.601699555883564E7 ; 4.331601161017811E10 ; 41312.239999999954
117 ; 841191.0038750271 ; 4.019642084906424E8 ; 8.685685736522874E7 ; 4.371796522306457E10 ; 41668.379999999954
118 ; 840033.0804220573 ; 4.019747903042292E8 ; 8.769804836910377E7 ; 4.411992943155521E10 ; 42024.51999999995
119 ; 842809.6121070044 ; 4.019853578465226E8 ; 8.853808144952583E7 ; 4.4521904221859436E10 ; 42380.65999999995
120 ; 844261.6185924474 ; 4.019959106459248E8 ; 8.938089106163284E7 ; 4.4923889579705956E10 ; 42736.79999999995
121 ; 843402.8430380817 ; 4.0200644823960376E8 ; 9.022515268022528E7 ; 4.532588549035188E10 ; 43092.93999999995
122 ; 845248.2407536389 ; 4.020169701731777E8 ; 9.106855552326337E7 ; 4.5727891938591484E10 ; 43449.07999999995
123 ; 842563.0480063756 ; 4.0202747600041497E8 ; 9.1913803764017E7 ; 4.612990890876466E10 ; 43805.21999999995
124 ; 842549.1040726266 ; 4.020379652829455E8 ; 9.275636681202337E7 ; 4.6531936384765076E10 ; 44161.35999999995
125 ; 844207.8217131258 ; 4.020484375899872E8 ; 9.3598915916096E7 ; 4.693397435004802E10 ; 44517.49999999995
126 ; 842828.0850593399 ; 4.02058892498083E8 ; 9.444312373780912E7 ; 4.733602278763801E10 ; 44873.63999999995
127 ; 842802.3603165917 ; 4.020693295908501E8 ; 9.528595182286847E7 ; 4.773808168013609E10 ; 45229.77999999995
128 ; 840844.3048535633 ; 4.020797484587401E8 ; 9.612875418318506E7 ; 4.8140151009726944E10 ; 45585.91999999995
129 ; 840500.3745899763 ; 4.0209014869880986E8 ; 9.696959848803861E7 ; 4.8542230758185684E10 ; 45942.05999999995
130 ; 841979.5959376144 ; 4.021005299145021E8 ; 9.78100988626286E7 ; 4.894432090688449E10 ; 46298.199999999946
131 ; 839484.2581897259 ; 4.0211089171543527E8 ; 9.86520784585662E7 ; 4.9346421436798996E10 ; 46654.339999999946
132 ; 841668.3112847172 ; 4.021212337172034E8 ; 9.949156271675593E7 ; 4.9748532328514435E10 ; 47010.479999999945
133 ; 840486.0282007685 ; 4.02131555541183E8 ; 1.0033323102804065E8 ; 5.0150653562231636E10 ; 47366.619999999944
134 ; 840422.830245727 ; 4.021418568143499E8 ; 1.0117371705624142E8 ; 5.055278511777282E10 ; 47722.759999999944
135 ; 840109.7310639477 ; 4.021521371691028E8 ; 1.0201413988648716E8 ; 5.0954926974587166E10 ; 48078.89999999994
136 ; 842129.3443833177 ; 4.021623962430941E8 ; 1.028542496175511E8 ; 5.135707911175627E10 ; 48435.03999999994
137 ; 841367.6345653766 ; 4.02172633679069E8 ; 1.0369637896193442E8 ; 5.175924150799937E10 ; 48791.17999999994
138 ; 842125.8551289255 ; 4.0218284912470996E8 ; 1.045377465964998E8 ; 5.216141414167844E10 ; 49147.31999999994
139 ; 838249.7005902292 ; 4.021930422324888E8 ; 1.0537987245162873E8 ; 5.256359699080315E10 ; 49503.45999999994
140 ; 840151.006144974 ; 4.02203212659524E8 ; 1.0621812215221895E8 ; 5.296579003303564E10 ; 49859.59999999994
141 ; 840346.2978391658 ; 4.022133600674446E8 ; 1.0705827315836392E8 ; 5.336799324569516E10 ; 50215.73999999994
142 ; 841457.9922579357 ; 4.022234841222593E8 ; 1.0789861945620309E8 ; 5.37702066057626E10 ; 50571.87999999994
143 ; 840312.5037522672 ; 4.02233584494231E8 ; 1.0874007744846103E8 ; 5.4172430089884865E10 ; 50928.01999999994
144 ; 837591.4985730398 ; 4.0224366085775626E8 ; 1.0958038995221329E8 ; 5.45746636743791E10 ; 51284.15999999994
145 ; 837744.89314685 ; 4.022537128912505E8 ; 1.1041798145078632E8 ; 5.4976907335236855E10 ; 51640.29999999994
146 ; 841717.6192073137 ; 4.022637402770362E8 ; 1.1125572634393317E8 ; 5.5379161048128105E10 ; 51996.43999999994
147 ; 843790.2743360845 ; 4.0227374270123756E8 ; 1.1209744396314047E8 ; 5.578142478840514E10 ; 52352.579999999936
148 ; 843718.760011375 ; 4.022837198536774E8 ; 1.1294123423747656E8 ; 5.6183698531106384E10 ; 52708.719999999936
149 ; 846104.5066598171 ; 4.0229367142778015E8 ; 1.1378495299748793E8 ; 5.658598225096006E10 ; 53064.859999999935
150 ; 847598.0868707014 ; 4.023035971204768E8 ; 1.1463105750414775E8 ; 5.698827592238784E10 ; 53420.999999999935
151 ; 849532.8724359309 ; 4.02313496632115E8 ; 1.1547865559101845E8 ; 5.7390579519508316E10 ; 53777.139999999934
152 ; 850278.9481180642 ; 4.0232336966637194E8 ; 1.1632818846345438E8 ; 5.7792893016140434E10 ; 54133.27999999993
153 ; 850564.5809645656 ; 4.0233321593017113E8 ; 1.1717846741157244E8 ; 5.819521638580681E10 ; 54489.41999999993
154 ; 854837.4818345094 ; 4.023430351336019E8 ; 1.18029031992537E8 ; 5.859754960173698E10 ; 54845.55999999993
155 ; 855058.71951068 ; 4.023528269898423E8 ; 1.1888386947437152E8 ; 5.8999892636870575E10 ; 55201.69999999993
156 ; 857552.5419130792 ; 4.0236259121508515E8 ; 1.197389281938822E8 ; 5.940224546386042E10 ; 55557.83999999993
157 ; 857445.858258078 ; 4.023723275284668E8 ; 1.2059648073579527E8 ; 5.980460805507551E10 ; 55913.97999999993
158 ; 861699.1532684781 ; 4.023820356519986E8 ; 1.2145392659405336E8 ; 6.020698038260397E10 ; 56270.11999999993
159 ; 865078.9318424625 ; 4.023917153105005E8 ; 1.2231562574732183E8 ; 6.0609362418255974E10 ; 56626.25999999993
160 ; 863955.3302515183 ; 4.024013662315384E8 ; 1.2318070467916429E8 ; 6.1011754133566475E10 ; 56982.39999999993
161 ; 866099.622627841 ; 4.0241098814536273E8 ; 1.240446600094158E8 ; 6.141415549979801E10 ; 57338.53999999993
162 ; 867255.5924693363 ; 4.024205807848499E8 ; 1.2491075963204364E8 ; 6.1816566487943375E10 ; 57694.67999999993
163 ; 868126.8754590751 ; 4.024301438854457E8 ; 1.2577801522451298E8 ; 6.2218987068728226E10 ; 58050.81999999993
164 ; 870386.8254150116 ; 4.024396771851111E8 ; 1.2664614209997205E8 ; 6.262141721261367E10 ; 58406.95999999993
165 ; 870450.0672496458 ; 4.024491804242699E8 ; 1.2751652892538707E8 ; 6.302385688979878E10 ; 58763.099999999926
166 ; 872641.0677168696 ; 4.0245865334575826E8 ; 1.2838697899263671E8 ; 6.342630607022305E10 ; 59119.239999999925
167 ; 873779.5629638277 ; 4.024680956947765E8 ; 1.2925962006035358E8 ; 6.382876472356881E10 ; 59475.379999999925
168 ; 873543.514605699 ; 4.02477507218842E8 ; 1.301333996233174E8 ; 6.423123281926359E10 ; 59831.519999999924
169 ; 874928.448249022 ; 4.0248688766774464E8 ; 1.310069431379231E8 ; 6.463371032648243E10 ; 60187.65999999992
170 ; 878111.2190265106 ; 4.024962367935033E8 ; 1.3188187158617213E8 ; 6.503619721415018E10 ; 60543.79999999992
171 ; 876329.7045247852 ; 4.0250555435032403E8 ; 1.3275998280519864E8 ; 6.543869345094368E10 ; 60899.93999999992
172 ; 879708.882468517 ; 4.0251484009456027E8 ; 1.3363631250972342E8 ; 6.584119900529401E10 ; 61256.07999999992
173 ; 880496.7555919203 ; 4.025240937846735E8 ; 1.3451602139219195E8 ; 6.6243713845388565E10 ; 61612.21999999992
174 ; 882754.3484397087 ; 4.025333151811967E8 ; 1.3539651814778388E8 ; 6.664623793917324E10 ; 61968.35999999992
175 ; 886113.0832746445 ; 4.0254250404669774E8 ; 1.362792724962236E8 ; 6.704877125435444E10 ; 62324.49999999992
176 ; 888138.7512204892 ; 4.025516601457452E8 ; 1.3716538557949823E8 ; 6.745131375840114E10 ; 62680.63999999992
177 ; 890364.4287135302 ; 4.025607832448746E8 ; 1.3805352433071873E8 ; 6.785386541854688E10 ; 63036.77999999992
