CSV File for the Network on Day 17
1 - Minute m 
2 - Power Consumed at minute m 
3 - Power Produced at minute m 
4 - Energy Consumed since the beginning of the day 
5 - Energy Produced since the beginning of the day 
6 - Energy Lost since the beginning of the day 
 
0 ; 4535079.189359821 ; 2.104794587206335E8 ; 0.0 ; 0.0 ; 0.0
1 ; 4539148.723260222 ; 2.1078030553550744E8 ; 4535079.189359821 ; 2.104794587206335E8 ; 356.14
2 ; 4542221.398227393 ; 2.1169889286003506E8 ; 9074227.912620043 ; 4.2125976425614095E8 ; 712.28
3 ; 4548012.796996559 ; 2.132352956679796E8 ; 1.3616449310847435E7 ; 6.32958657116176E8 ; 1068.42
4 ; 4553146.992539555 ; 2.1538959868810135E8 ; 1.8164462107843995E7 ; 8.461939527841556E8 ; 1424.56
5 ; 4558895.3593717115 ; 2.1816189512192965E8 ; 2.271760910038355E7 ; 1.0615835514722569E9 ; 1780.6999999999998
6 ; 4562119.697982533 ; 2.215522836189826E8 ; 2.727650445975526E7 ; 1.2797454465941865E9 ; 2136.8399999999997
7 ; 4565748.3854773855 ; 2.2556086304637957E8 ; 3.183862415773779E7 ; 1.501297730213169E9 ; 2492.9799999999996
8 ; 4570903.840854641 ; 2.3018772498442084E8 ; 3.640437254321518E7 ; 1.7268585932595487E9 ; 2849.1199999999994
9 ; 4572576.140669811 ; 2.3543294462859434E8 ; 4.0975276384069815E7 ; 1.9570463182439694E9 ; 3205.2599999999993
10 ; 4575866.82531666 ; 2.4129657170538777E8 ; 4.554785252473962E7 ; 2.192479262872564E9 ; 3561.399999999999
11 ; 4580568.967014999 ; 2.4777862364094007E8 ; 5.012371935005628E7 ; 2.4337758345779514E9 ; 3917.539999999999
12 ; 4583110.035514365 ; 2.5487908300911224E8 ; 5.470428831707128E7 ; 2.6815544582188916E9 ; 4273.679999999999
13 ; 4586044.505936382 ; 2.6259790008341655E8 ; 5.928739835258564E7 ; 2.936433541228004E9 ; 4629.82
14 ; 4588077.068104089 ; 2.7093499966836536E8 ; 6.387344285852203E7 ; 3.1990314413114204E9 ; 4985.96
15 ; 4591927.271468635 ; 2.79890290183658E8 ; 6.846151992662612E7 ; 3.469966440979786E9 ; 5342.1
16 ; 4594124.891118103 ; 2.8946367276217544E8 ; 7.305344719809476E7 ; 3.749856731163444E9 ; 5698.240000000001
17 ; 4596703.165517127 ; 2.996550487543994E8 ; 7.764757208921286E7 ; 4.0393204039256196E9 ; 6054.380000000001
18 ; 4602212.415357908 ; 3.1046432495880055E8 ; 8.224427525472999E7 ; 4.338975452680019E9 ; 6410.520000000001
19 ; 4604693.485242481 ; 3.218914166466186E8 ; 8.684648767008789E7 ; 4.64943977763882E9 ; 6766.660000000002
20 ; 4607140.137642106 ; 3.339362488440902E8 ; 9.145118115533037E7 ; 4.971331194285439E9 ; 7122.800000000002
21 ; 4609604.369746162 ; 3.465987564300051E8 ; 9.605832129297248E7 ; 5.305267443129529E9 ; 7478.940000000002
22 ; 4615508.674703596 ; 3.5987888353352463E8 ; 1.0066792566271864E8 ; 5.651866199559534E9 ; 7835.080000000003
23 ; 4619667.128835136 ; 3.737765825872284E8 ; 1.0528343433742224E8 ; 6.011745083093059E9 ; 8191.220000000003
24 ; 4620199.334067996 ; 3.882918132654762E8 ; 1.0990310146625738E8 ; 6.385521665680287E9 ; 8547.360000000002
25 ; 4623661.67661394 ; 4.0080062323823166E8 ; 1.1452330080032538E8 ; 6.773813478945764E9 ; 8903.500000000002
26 ; 4629237.8730222 ; 4.008100792897332E8 ; 1.1914696247693932E8 ; 7.174614102183995E9 ; 9259.640000000001
27 ; 4631421.3271766715 ; 4.008196955283775E8 ; 1.2377620034996152E8 ; 7.575424181473728E9 ; 9615.78
28 ; 4633121.049365228 ; 4.00829451160208E8 ; 1.284076216771382E8 ; 7.976243877002106E9 ; 9971.92
29 ; 4636439.363036732 ; 4.008393284679606E8 ; 1.3304074272650342E8 ; 8.377073328162313E9 ; 10328.06
30 ; 4637805.541575514 ; 4.008493123037392E8 ; 1.3767718208954015E8 ; 8.777912656630274E9 ; 10684.199999999999
31 ; 4641023.847384661 ; 4.0085938966783476E8 ; 1.4231498763111567E8 ; 9.178761968934013E9 ; 11040.339999999998
32 ; 4641725.783776683 ; 4.008695493601644E8 ; 1.4695601147850034E8 ; 9.579621358601849E9 ; 11396.479999999998
33 ; 4647797.248515721 ; 4.008797816921503E8 ; 1.51597737262277E8 ; 9.980490907962013E9 ; 11752.619999999997
34 ; 4648638.777181542 ; 4.0089007824850297E8 ; 1.5624553451079273E8 ; 1.0381370689654163E10 ; 12108.759999999997
35 ; 4652585.959269631 ; 4.009004316900232E8 ; 1.6089417328797427E8 ; 1.0782260767902666E10 ; 12464.899999999996
36 ; 4652852.179338884 ; 4.0091083559003943E8 ; 1.655467592472439E8 ; 1.118316119959269E10 ; 12821.039999999995
37 ; 4656249.793046046 ; 4.00921284298409E8 ; 1.7019961142658278E8 ; 1.158407203518273E10 ; 13177.179999999995
38 ; 4658017.8750066105 ; 4.009317728281199E8 ; 1.7485586121962884E8 ; 1.1984993319481138E10 ; 13533.319999999994
39 ; 4660922.602105289 ; 4.009422967604476E8 ; 1.7951387909463546E8 ; 1.2385925092309258E10 ; 13889.459999999994
40 ; 4662060.336021115 ; 4.009528521653756E8 ; 1.8417480169674075E8 ; 1.2786867389069706E10 ; 14245.599999999993
41 ; 4663544.209258549 ; 4.0096343553460276E8 ; 1.8883686203276187E8 ; 1.318782024123508E10 ; 14601.739999999993
42 ; 4663466.025348957 ; 4.009740437249578E8 ; 1.9350040624202043E8 ; 1.3588783676769684E10 ; 14957.879999999992
43 ; 4665705.075102166 ; 4.0098467391044456E8 ; 1.981638722673694E8 ; 1.3989757720494642E10 ; 15314.019999999991
44 ; 4668827.013841818 ; 4.009953235414644E8 ; 2.0282957734247157E8 ; 1.4390742394405087E10 ; 15670.15999999999
45 ; 4667340.952757984 ; 4.0100599031002986E8 ; 2.0749840435631338E8 ; 1.479173771794655E10 ; 16026.29999999999
46 ; 4671413.098076986 ; 4.0101667211999106E8 ; 2.1216574530907136E8 ; 1.519274370825658E10 ; 16382.43999999999
47 ; 4673510.517364464 ; 4.01027367061473E8 ; 2.1683715840714836E8 ; 1.5593760380376572E10 ; 16738.57999999999
48 ; 4673926.008003568 ; 4.0103807338885957E8 ; 2.2151066892451283E8 ; 1.5994787747438046E10 ; 17094.71999999999
49 ; 4677034.888121332 ; 4.01048789501775E8 ; 2.261845949325164E8 ; 1.6395825820826904E10 ; 17450.85999999999
50 ; 4677199.211009031 ; 4.010595139286065E8 ; 2.3086162982063773E8 ; 1.679687461032868E10 ; 17806.99999999999
51 ; 4678797.207574339 ; 4.010702453121873E8 ; 2.3553882903164676E8 ; 1.7197934124257286E10 ; 18163.13999999999
52 ; 4679035.317010097 ; 4.01080982397323E8 ; 2.402176262392211E8 ; 1.7599004369569473E10 ; 18519.279999999988
53 ; 4678784.236276636 ; 4.01091724019894E8 ; 2.448966615562312E8 ; 1.8000085351966797E10 ; 18875.419999999987
54 ; 4679600.656310945 ; 4.0110246909730965E8 ; 2.4957544579250783E8 ; 1.840117707598669E10 ; 19231.559999999987
55 ; 4679630.914338261 ; 4.011132166201271E8 ; 2.5425504644881877E8 ; 1.8802279545084E10 ; 19587.699999999986
56 ; 4680517.944508723 ; 4.0112396564467216E8 ; 2.5893467736315703E8 ; 1.920339276170413E10 ; 19943.839999999986
57 ; 4680133.540471337 ; 4.011347152865289E8 ; 2.6361519530766577E8 ; 1.96045167273488E10 ; 20299.979999999985
58 ; 4682755.458699438 ; 4.0114546471478146E8 ; 2.682953288481371E8 ; 2.000565144263533E10 ; 20656.119999999984
59 ; 4684747.762633529 ; 4.0115621314691055E8 ; 2.7297808430683655E8 ; 2.0406796907350113E10 ; 21012.259999999984
60 ; 4685876.996562021 ; 4.011669598442595E8 ; 2.7766283206947005E8 ; 2.0807953120497025E10 ; 21368.399999999983
61 ; 4686239.359137016 ; 4.011777041079987E8 ; 2.8234870906603205E8 ; 2.1209120080341286E10 ; 21724.539999999983
62 ; 4688828.81828234 ; 4.0118844527552605E8 ; 2.8703494842516905E8 ; 2.1610297784449284E10 ; 22080.679999999982
63 ; 4689083.649077633 ; 4.011991827172499E8 ; 2.917237772434514E8 ; 2.2011486229724808E10 ; 22436.81999999998
64 ; 4687574.436004048 ; 4.012099158337087E8 ; 2.964128608925291E8 ; 2.241268541244206E10 ; 22792.95999999998
65 ; 4688933.548468831 ; 4.0122064405298686E8 ; 3.011004353285331E8 ; 2.281389532827577E10 ; 23149.09999999998
66 ; 4691722.645528022 ; 4.012313668283928E8 ; 3.0578936887700194E8 ; 2.3215115972328754E10 ; 23505.23999999998
67 ; 4689815.979551698 ; 4.012420836363685E8 ; 3.1048109152252996E8 ; 2.3616347339157146E10 ; 23861.37999999998
68 ; 4691360.655453892 ; 4.012527939746047E8 ; 3.1517090750208163E8 ; 2.4017589422793514E10 ; 24217.51999999998
69 ; 4691470.859662753 ; 4.0126349736033815E8 ; 3.1986226815753555E8 ; 2.441884221676812E10 ; 24573.659999999978
70 ; 4693326.977380803 ; 4.01274193328812E8 ; 3.245537390171983E8 ; 2.4820105714128456E10 ; 24929.799999999977
71 ; 4689085.374877573 ; 4.0128488143188E8 ; 3.2924706599457914E8 ; 2.5221379907457268E10 ; 25285.939999999977
72 ; 4691779.096657317 ; 4.0129556123674107E8 ; 3.339361513694567E8 ; 2.562266478888915E10 ; 25642.079999999976
73 ; 4690888.288683182 ; 4.013062323247882E8 ; 3.3862793046611404E8 ; 2.602396035012589E10 ; 25998.219999999976
74 ; 4689137.196783808 ; 4.013168942905624E8 ; 3.433188187547972E8 ; 2.6425266582450676E10 ; 26354.359999999975
75 ; 4692376.45968213 ; 4.013275467407986E8 ; 3.48007955951581E8 ; 2.6826583476741238E10 ; 26710.499999999975
76 ; 4690205.026155313 ; 4.013381892935554E8 ; 3.527003324112631E8 ; 2.7227911023482037E10 ; 27066.639999999974
77 ; 4692789.601904162 ; 4.013488215774203E8 ; 3.573905374374184E8 ; 2.7629249212775593E10 ; 27422.779999999973
78 ; 4691120.679831946 ; 4.013594432307827E8 ; 3.6208332703932256E8 ; 2.8030598034353012E10 ; 27778.919999999973
79 ; 4688777.82263937 ; 4.0137005390116775E8 ; 3.667744477191545E8 ; 2.8431957477583794E10 ; 28135.059999999972
80 ; 4689668.972820186 ; 4.013806532446261E8 ; 3.714632255417938E8 ; 2.8833327531484962E10 ; 28491.19999999997
81 ; 4689816.937682161 ; 4.013912409251735E8 ; 3.76152894514614E8 ; 2.9234708184729588E10 ; 28847.33999999997
82 ; 4691059.486089573 ; 4.0140181661427593E8 ; 3.8084271145229614E8 ; 2.9636099425654762E10 ; 29203.47999999997
83 ; 4691244.737780197 ; 4.0141237999037564E8 ; 3.855337709383857E8 ; 3.003750124226904E10 ; 29559.61999999997
84 ; 4691664.1284482675 ; 4.0142293073845553E8 ; 3.9022501567616594E8 ; 3.0438913622259415E10 ; 29915.75999999997
85 ; 4689640.332259044 ; 4.014334685496365E8 ; 3.949166798046142E8 ; 3.084033655299787E10 ; 30271.89999999997
86 ; 4691927.324159108 ; 4.0144399312080693E8 ; 3.9960632013687325E8 ; 3.124177002154751E10 ; 30628.039999999968
87 ; 4690704.78858477 ; 4.0145450415427977E8 ; 4.0429824746103233E8 ; 3.1643214014668316E10 ; 30984.179999999968
88 ; 4690314.583055083 ; 4.014650013574759E8 ; 4.089889522496171E8 ; 3.2044668518822598E10 ; 31340.319999999967
89 ; 4690074.169767172 ; 4.01475484442631E8 ; 4.136792668326722E8 ; 3.2446133520180073E10 ; 31696.459999999966
90 ; 4689535.2072696835 ; 4.0148595312652427E8 ; 4.183693410024394E8 ; 3.2847609004622704E10 ; 32052.599999999966
91 ; 4688046.089078392 ; 4.0149640713022673E8 ; 4.2305887620970905E8 ; 3.324909495774923E10 ; 32408.739999999965
92 ; 4688919.870203902 ; 4.0150684617886794E8 ; 4.277469222987874E8 ; 3.3650591364879456E10 ; 32764.879999999965
93 ; 4689155.916674505 ; 4.015172700014192E8 ; 4.324358421689913E8 ; 3.4052098211058323E10 ; 33121.01999999997
94 ; 4687108.440820131 ; 4.015276783304924E8 ; 4.371249980856658E8 ; 3.4453615481059746E10 ; 33477.15999999997
95 ; 4685887.380737543 ; 4.015380709021528E8 ; 4.41812106526486E8 ; 3.4855143159390236E10 ; 33833.29999999997
96 ; 4685642.932946561 ; 4.0154844745574486E8 ; 4.464979939072235E8 ; 3.525668123029239E10 ; 34189.439999999966
97 ; 4682412.229826963 ; 4.015588077337301E8 ; 4.511836368401701E8 ; 3.565822967774813E10 ; 34545.579999999965
98 ; 4683179.893270814 ; 4.015691514815358E8 ; 4.558660490699971E8 ; 3.605978848548186E10 ; 34901.719999999965
99 ; 4681230.943367242 ; 4.015794784474143E8 ; 4.6054922896326786E8 ; 3.6461357636963394E10 ; 35257.859999999964
100 ; 4680113.644662326 ; 4.0158978838231146E8 ; 4.652304599066351E8 ; 3.6862937115410805E10 ; 35613.99999999996
101 ; 4681583.874459176 ; 4.016000810397439E8 ; 4.699105735512974E8 ; 3.726452690379311E10 ; 35970.13999999996
102 ; 4679397.720060264 ; 4.0161035617568415E8 ; 4.745921574257566E8 ; 3.7666126984832855E10 ; 36326.27999999996
103 ; 4679990.968494622 ; 4.016206135484538E8 ; 4.7927155514581686E8 ; 3.806773734100854E10 ; 36682.41999999996
104 ; 4678051.027500448 ; 4.0163085291862303E8 ; 4.8395154611431146E8 ; 3.846935795455699E10 ; 37038.55999999996
105 ; 4676588.399013119 ; 4.016410740489167E8 ; 4.886295971418119E8 ; 3.887098880747562E10 ; 37394.69999999996
106 ; 4676029.149955613 ; 4.016512767041266E8 ; 4.93306185540825E8 ; 3.9272629881524536E10 ; 37750.83999999996
107 ; 4674496.214220671 ; 4.0166146065102935E8 ; 4.9798221469078064E8 ; 3.967428115822866E10 ; 38106.97999999996
108 ; 4672075.530222174 ; 4.01671625658309E8 ; 5.026567109050013E8 ; 4.007594261887969E10 ; 38463.11999999996
109 ; 4670984.796037841 ; 4.0168177149648476E8 ; 5.0732878643522346E8 ; 4.0477614244538E10 ; 38819.25999999996
110 ; 4669587.02487259 ; 4.016918979378432E8 ; 5.119997712312613E8 ; 4.0879296016034485E10 ; 39175.39999999996
111 ; 4671283.806845242 ; 4.017020047563746E8 ; 5.166693582561339E8 ; 4.128098791397233E10 ; 39531.53999999996
112 ; 4669665.966473425 ; 4.017120917277132E8 ; 5.2134064206297916E8 ; 4.168268991872871E10 ; 39887.67999999996
113 ; 4666934.409581007 ; 4.01722158629081E8 ; 5.2601030802945256E8 ; 4.208440201045642E10 ; 40243.819999999956
114 ; 4664630.209206839 ; 4.017322052392348E8 ; 5.3067724243903357E8 ; 4.24861241690855E10 ; 40599.959999999955
115 ; 4662841.999470673 ; 4.0174223133841705E8 ; 5.353418726482404E8 ; 4.288785637432474E10 ; 40956.099999999955
116 ; 4662550.410888969 ; 4.017522367083087E8 ; 5.40004714647711E8 ; 4.3289598605663155E10 ; 41312.239999999954
117 ; 4659092.874798586 ; 4.0176222113198584E8 ; 5.446672650586E8 ; 4.369135084237146E10 ; 41668.379999999954
118 ; 4657674.924515759 ; 4.01772184393878E8 ; 5.493263579333985E8 ; 4.409311306350345E10 ; 42024.51999999995
119 ; 4657498.293668925 ; 4.017821262797295E8 ; 5.539840328579142E8 ; 4.449488524789732E10 ; 42380.65999999995
120 ; 4654654.3261156315 ; 4.0179204657656294E8 ; 5.586415311515831E8 ; 4.4896667374177055E10 ; 42736.79999999995
121 ; 4655515.638824443 ; 4.018019450726447E8 ; 5.632961854776987E8 ; 4.529845942075362E10 ; 43092.93999999995
122 ; 4652579.075835284 ; 4.018118215574523E8 ; 5.679517011165231E8 ; 4.570026136582626E10 ; 43449.07999999995
123 ; 4649801.8942445805 ; 4.018216758216444E8 ; 5.726042801923584E8 ; 4.610207318738371E10 ; 43805.21999999995
124 ; 4648169.2640763875 ; 4.0183150765703154E8 ; 5.772540820866029E8 ; 4.650389486320536E10 ; 44161.35999999995
125 ; 4643721.045691796 ; 4.018413168565488E8 ; 5.819022513506793E8 ; 4.690572637086239E10 ; 44517.49999999995
126 ; 4641714.007816597 ; 4.018511032142311E8 ; 5.865459723963711E8 ; 4.730756768771894E10 ; 44873.63999999995
127 ; 4638298.906606763 ; 4.018608665251882E8 ; 5.911876864041877E8 ; 4.7709418790933174E10 ; 45229.77999999995
128 ; 4636428.262976554 ; 4.018706065855826E8 ; 5.958259853107945E8 ; 4.811127965745836E10 ; 45585.91999999995
129 ; 4632996.788389005 ; 4.0188032319260776E8 ; 6.00462413573771E8 ; 4.851315026404394E10 ; 45942.05999999995
130 ; 4629359.885645648 ; 4.0189001614446807E8 ; 6.0509541036216E8 ; 4.891503058723654E10 ; 46298.199999999946
131 ; 4624920.402904137 ; 4.018996852403597E8 ; 6.097247702478056E8 ; 4.931692060338101E10 ; 46654.339999999946
132 ; 4621792.480745662 ; 4.019093302804529E8 ; 6.143496906507097E8 ; 4.971882028862137E10 ; 47010.479999999945
133 ; 4621371.869500076 ; 4.019189510658747E8 ; 6.189714831314554E8 ; 5.0120729618901825E10 ; 47366.619999999944
134 ; 4619466.4818787705 ; 4.019285473986933E8 ; 6.235928550009555E8 ; 5.05226485699677E10 ; 47722.759999999944
135 ; 4616933.719321577 ; 4.0193811908190286E8 ; 6.282123214828342E8 ; 5.0924577117366394E10 ; 48078.89999999994
136 ; 4615105.214728336 ; 4.019476659194093E8 ; 6.328292552021558E8 ; 5.1326515236448296E10 ; 48435.03999999994
137 ; 4613590.010964378 ; 4.019571877160171E8 ; 6.374443604168842E8 ; 5.172846290236771E10 ; 48791.17999999994
138 ; 4609436.233639492 ; 4.019666842774166E8 ; 6.420579504278486E8 ; 5.2130420090083725E10 ; 49147.31999999994
139 ; 4607575.359606114 ; 4.019761554101721E8 ; 6.46667386661488E8 ; 5.2532386774361145E10 ; 49503.45999999994
140 ; 4604045.98871297 ; 4.019856009217107E8 ; 6.512749620210942E8 ; 5.293436292977132E10 ; 49859.59999999994
141 ; 4600931.987114716 ; 4.0199502062031215E8 ; 6.558790080098072E8 ; 5.333634853069302E10 ; 50215.73999999994
142 ; 4599871.432358303 ; 4.020044143150983E8 ; 6.604799399969219E8 ; 5.373834355131334E10 ; 50571.87999999994
143 ; 4597880.296970773 ; 4.020137818160243E8 ; 6.650798114292802E8 ; 5.414034796562844E10 ; 50928.01999999994
144 ; 4593346.771121053 ; 4.020231229338697E8 ; 6.696776917262509E8 ; 5.4542361747444466E10 ; 51284.15999999994
145 ; 4592641.204532852 ; 4.020324374802302E8 ; 6.742710384973719E8 ; 5.4944384870378334E10 ; 51640.29999999994
146 ; 4591291.318837458 ; 4.0204172526751006E8 ; 6.788636797019048E8 ; 5.534641730785857E10 ; 51996.43999999994
147 ; 4587663.353684994 ; 4.020509861089145E8 ; 6.834549710207422E8 ; 5.5748459033126076E10 ; 52352.579999999936
148 ; 4586991.043806431 ; 4.0206021981844336E8 ; 6.880426343744272E8 ; 5.615051001923499E10 ; 52708.719999999936
149 ; 4587128.856806413 ; 4.0206942621088433E8 ; 6.926296254182336E8 ; 5.655257023905344E10 ; 53064.859999999935
150 ; 4585582.870545912 ; 4.020786051018071E8 ; 6.9721675427504E8 ; 5.695463966526432E10 ; 53420.999999999935
151 ; 4583903.515312398 ; 4.0208775630755806E8 ; 7.018023371455859E8 ; 5.735671827036613E10 ; 53777.139999999934
152 ; 4580653.081964704 ; 4.020968796452545E8 ; 7.063862406608983E8 ; 5.775880602667368E10 ; 54133.27999999993
153 ; 4581540.831421677 ; 4.0210597493278027E8 ; 7.10966893742863E8 ; 5.816090290631894E10 ; 54489.41999999993
154 ; 4580513.755534116 ; 4.02115041988781E8 ; 7.155484345742848E8 ; 5.856300888125172E10 ; 54845.55999999993
155 ; 4578351.785305937 ; 4.0212408063265955E8 ; 7.20128948329819E8 ; 5.896512392324049E10 ; 55201.69999999993
156 ; 4579832.35748901 ; 4.0213309068457276E8 ; 7.24707300115125E8 ; 5.936724800387315E10 ; 55557.83999999993
157 ; 4576750.225874296 ; 4.021420719654273E8 ; 7.292871324726139E8 ; 5.9769381094557724E10 ; 55913.97999999993
158 ; 4577125.577263894 ; 4.021510242968762E8 ; 7.338638826984882E8 ; 6.017152316652315E10 ; 56270.11999999993
159 ; 4576467.414237507 ; 4.021599475013163E8 ; 7.384410082757522E8 ; 6.057367419082002E10 ; 56626.25999999993
160 ; 4573955.9396251375 ; 4.0216884140188456E8 ; 7.430174756899897E8 ; 6.097583413832134E10 ; 56982.39999999993
161 ; 4573866.701196908 ; 4.02177705822456E8 ; 7.475914316296148E8 ; 6.137800297972323E10 ; 57338.53999999993
162 ; 4570370.246788503 ; 4.021865405876411E8 ; 7.521652983308117E8 ; 6.1780180685545685E10 ; 57694.67999999993
163 ; 4568616.57412884 ; 4.021953455227835E8 ; 7.567356685776002E8 ; 6.218236722613332E10 ; 58050.81999999993
164 ; 4568555.609966044 ; 4.022041204539579E8 ; 7.613042851517291E8 ; 6.2584562571656105E10 ; 58406.95999999993
165 ; 4564100.292438621 ; 4.022128652079686E8 ; 7.658728407616951E8 ; 6.298676669211006E10 ; 58763.099999999926
166 ; 4562916.163820393 ; 4.0222157961234736E8 ; 7.704369410541338E8 ; 6.338897955731803E10 ; 59119.239999999925
167 ; 4562089.833156346 ; 4.0223026349535215E8 ; 7.749998572179542E8 ; 6.379120113693038E10 ; 59475.379999999925
168 ; 4559510.187244218 ; 4.022389166859659E8 ; 7.795619470511105E8 ; 6.4193431400425735E10 ; 59831.519999999924
169 ; 4558360.697644528 ; 4.0224753901389515E8 ; 7.841214572383547E8 ; 6.45956703171117E10 ; 60187.65999999992
170 ; 4555976.220838485 ; 4.0225613030956936E8 ; 7.886798179359992E8 ; 6.4997917856125595E10 ; 60543.79999999992
171 ; 4557290.4049287755 ; 4.022646904041395E8 ; 7.932357941568376E8 ; 6.5400173986435165E10 ; 60899.93999999992
172 ; 4553397.175154407 ; 4.022732191294779E8 ; 7.977930845617664E8 ; 6.58024386768393E10 ; 61256.07999999992
173 ; 4551798.728957183 ; 4.0228171631817734E8 ; 8.023464817369208E8 ; 6.620471189596878E10 ; 61612.21999999992
174 ; 4553378.264454828 ; 4.022901818035505E8 ; 8.06898280465878E8 ; 6.660699361228696E10 ; 61968.35999999992
175 ; 4552950.183955976 ; 4.022986154196297E8 ; 8.114516587303329E8 ; 6.700928379409051E10 ; 62324.49999999992
176 ; 4553064.369386863 ; 4.0230701700116694E8 ; 8.160046089142889E8 ; 6.741158240951014E10 ; 62680.63999999992
177 ; 4553275.768571345 ; 4.0231538638363314E8 ; 8.205576732836758E8 ; 6.781388942651131E10 ; 63036.77999999992
