CSV File for the Network on Day 211
1 - Minute m 
2 - Power Consumed at minute m 
3 - Power Produced at minute m 
4 - Energy Consumed since the beginning of the day 
5 - Energy Produced since the beginning of the day 
6 - Energy Lost since the beginning of the day 
 
0 ; 489375.91707240354 ; 2.1067012217558E8 ; 0.0 ; 0.0 ; 0.0
1 ; 494983.9781736747 ; 2.109748653689445E8 ; 489375.91707240354 ; 2.1067012217558E8 ; 356.14
2 ; 496728.22789922054 ; 2.1189726424808708E8 ; 984359.8952460783 ; 4.216449875445245E8 ; 712.28
3 ; 504370.0351532381 ; 2.13437330749678E8 ; 1481088.1231452988 ; 6.335422517926116E8 ; 1068.42
4 ; 509395.6268408876 ; 2.1559507593348393E8 ; 1985458.158298537 ; 8.469795825422896E8 ; 1424.56
5 ; 514850.7943362534 ; 2.1837050981139854E8 ; 2494853.7851394247 ; 1.0625746584757736E9 ; 1780.6999999999998
6 ; 519759.78181295306 ; 2.217636411827695E8 ; 3009704.579475678 ; 1.280945168287172E9 ; 2136.8399999999997
7 ; 522410.8877114046 ; 2.2577447748178372E8 ; 3529464.3612886313 ; 1.5027088094699416E9 ; 2492.9799999999996
8 ; 526090.7121931008 ; 2.3040302464270636E8 ; 4051875.249000036 ; 1.7284832869517252E9 ; 2849.1199999999994
9 ; 531950.0187178457 ; 2.356492869884419E8 ; 4577965.961193137 ; 1.9588863115944316E9 ; 3205.2599999999993
10 ; 535272.751969272 ; 2.4151326714717498E8 ; 5109915.979910983 ; 2.1945355985828733E9 ; 3561.399999999999
11 ; 537547.3758030944 ; 2.4799496600078765E8 ; 5645188.731880255 ; 2.436048865730048E9 ; 3917.539999999999
12 ; 542481.3198904679 ; 2.5509438266739777E8 ; 6182736.107683349 ; 2.684043831730836E9 ; 4273.679999999999
13 ; 546665.9358861584 ; 2.6281151451882073E8 ; 6725217.427573817 ; 2.939138214398234E9 ; 4629.82
14 ; 550708.3454670785 ; 2.711463572321523E8 ; 7271883.363459975 ; 3.2019497289170547E9 ; 4985.96
15 ; 555442.5092635874 ; 2.800989048731269E8 ; 7822591.708927054 ; 3.473096086149207E9 ; 5342.1
16 ; 556880.602224518 ; 2.8966915000755805E8 ; 8378034.218190641 ; 3.753194991022334E9 ; 5698.240000000001
17 ; 561385.6106714467 ; 2.998570838360978E8 ; 8934914.82041516 ; 4.042864141029892E9 ; 6054.380000000001
18 ; 564286.1718813321 ; 3.1066269634685254E8 ; 9496300.431086607 ; 4.34272122486599E9 ; 6410.520000000001
19 ; 568894.5561071859 ; 3.2208597648005563E8 ; 1.006058660296794E7 ; 4.653383921212842E9 ; 6766.660000000002
20 ; 573256.2836140817 ; 3.3412691229903674E8 ; 1.0629481159075126E7 ; 4.975469897692898E9 ; 7122.800000000002
21 ; 577836.8843650267 ; 3.467854911620836E8 ; 1.1202737442689208E7 ; 5.309596809991935E9 ; 7478.940000000002
22 ; 580422.2018288941 ; 3.600616998903963E8 ; 1.1780574327054234E7 ; 5.656382301154018E9 ; 7835.080000000003
23 ; 586113.6550070482 ; 3.739555249281105E8 ; 1.2360996528883127E7 ; 6.0164440010444145E9 ; 8191.220000000003
24 ; 588711.8166233085 ; 3.884669524912328E8 ; 1.2947110183890175E7 ; 6.390399525972525E9 ; 8547.360000000002
25 ; 592900.949513107 ; 4.0097205049957824E8 ; 1.3535822000513483E7 ; 6.7788664784637575E9 ; 8903.500000000002
26 ; 597681.8603940759 ; 4.009779007713282E8 ; 1.412872295002659E7 ; 7.179838528963336E9 ; 9259.640000000001
27 ; 601305.2855867803 ; 4.0098402817811394E8 ; 1.4726404810420666E7 ; 7.580816429734664E9 ; 9615.78
28 ; 603590.0686518159 ; 4.0099041922829604E8 ; 1.5327710096007446E7 ; 7.981800457912778E9 ; 9971.92
29 ; 608171.425843096 ; 4.009970607281119E8 ; 1.5931300164659262E7 ; 8.382790877141074E9 ; 10328.06
30 ; 609089.3276051985 ; 4.010039398420999E8 ; 1.6539471590502357E7 ; 8.783787937869186E9 ; 10684.199999999999
31 ; 614749.5703964755 ; 4.010110441404076E8 ; 1.7148560918107554E7 ; 9.184791877711287E9 ; 11040.339999999998
32 ; 618100.9888305095 ; 4.010183616342633E8 ; 1.776331048850403E7 ; 9.585802921851694E9 ; 11396.479999999998
33 ; 623643.2270174238 ; 4.010258808009705E8 ; 1.838141147733454E7 ; 9.986821283485958E9 ; 11752.619999999997
34 ; 625649.5928034692 ; 4.010335905997948E8 ; 1.9005054704351965E7 ; 1.0387847164286928E10 ; 12108.759999999997
35 ; 628851.8446652805 ; 4.010414804800706E8 ; 1.9630704297155436E7 ; 1.0788880754886723E10 ; 12464.899999999996
36 ; 632288.0568225984 ; 4.010495403827789E8 ; 2.0259556141820718E7 ; 1.1189922235366793E10 ; 12821.039999999995
37 ; 635580.7929614343 ; 4.010577607367449E8 ; 2.0891844198643316E7 ; 1.159097177574957E10 ; 13177.179999999995
38 ; 639431.4180337787 ; 4.0106613245049095E8 ; 2.152742499160475E7 ; 1.1992029536486317E10 ; 13533.319999999994
39 ; 641835.5161009723 ; 4.010746469006599E8 ; 2.2166856409638528E7 ; 1.2393095668936808E10 ; 13889.459999999994
40 ; 645353.265802177 ; 4.010832959178075E8 ; 2.28086919257395E7 ; 1.2794170315837467E10 ; 14245.599999999993
41 ; 646899.4001232315 ; 4.010920717702466E8 ; 2.345404519154168E7 ; 1.3195253611755274E10 ; 14601.739999999993
42 ; 650393.9333056589 ; 4.0110096714652514E8 ; 2.410094459166491E7 ; 1.359634568352552E10 ; 14957.879999999992
43 ; 652603.5819381995 ; 4.0110997513701993E8 ; 2.475133852497057E7 ; 1.3997446650672045E10 ; 15314.019999999991
44 ; 655682.439141727 ; 4.011190892150459E8 ; 2.540394210690877E7 ; 1.4398556625809065E10 ; 15670.15999999999
45 ; 659316.9655483206 ; 4.01128303217805E8 ; 2.6059624546050496E7 ; 1.479967571502411E10 ; 16026.29999999999
46 ; 662053.6349221888 ; 4.011376113274334E8 ; 2.6718941511598818E7 ; 1.5200804018241917E10 ; 16382.43999999999
47 ; 666590.3782788503 ; 4.011470080523506E8 ; 2.7380995146521006E7 ; 1.560194162956935E10 ; 16738.57999999999
48 ; 668536.9382318348 ; 4.011564882090666E8 ; 2.8047585524799857E7 ; 1.60030886376217E10 ; 17094.71999999999
49 ; 671191.3728054521 ; 4.011660469045646E8 ; 2.871612246303169E7 ; 1.6404245125830767E10 ; 17450.85999999999
50 ; 673851.5731353965 ; 4.0117567951934254E8 ; 2.9387313835837144E7 ; 1.680541117273533E10 ; 17806.99999999999
51 ; 675094.6377587898 ; 4.0118538169117147E8 ; 3.006116540897254E7 ; 1.7206586852254673E10 ; 18163.13999999999
52 ; 675387.1373932731 ; 4.0119514929960597E8 ; 3.073626004673133E7 ; 1.7607772233945843E10 ; 18519.279999999988
53 ; 677869.5384815888 ; 4.012049784512644E8 ; 3.1411647184124604E7 ; 1.800896738324545E10 ; 18875.419999999987
54 ; 677933.2367118043 ; 4.0121486546588355E8 ; 3.2089516722606193E7 ; 1.8410172361696712E10 ; 19231.559999999987
55 ; 680158.3413629367 ; 4.012248068631405E8 ; 3.2767449959317997E7 ; 1.8811387227162598E10 ; 19587.699999999986
56 ; 682889.8936900749 ; 4.0123479935022676E8 ; 3.3447608300680935E7 ; 1.9212612034025738E10 ; 19943.839999999986
57 ; 683888.4135961998 ; 4.0124483981015325E8 ; 3.413049819437101E7 ; 1.9613846833375965E10 ; 20299.979999999985
58 ; 689018.7905211056 ; 4.012549252907611E8 ; 3.4814386607967205E7 ; 2.001509167318612E10 ; 20656.119999999984
59 ; 693000.3985128867 ; 4.012650529944085E8 ; 3.550340539848831E7 ; 2.041634659847688E10 ; 21012.259999999984
60 ; 695051.4644231306 ; 4.0127522026830256E8 ; 3.61964057970012E7 ; 2.0817611651471287E10 ; 21368.399999999983
61 ; 694307.9187409956 ; 4.012854245954454E8 ; 3.6891457261424325E7 ; 2.121888687173959E10 ; 21724.539999999983
62 ; 697333.9827128609 ; 4.0129566358616E8 ; 3.758576518016532E7 ; 2.1620172296335033E10 ; 22080.679999999982
63 ; 700711.3222673757 ; 4.013059349701658E8 ; 3.828309916287818E7 ; 2.2021467959921192E10 ; 22436.81999999998
64 ; 704114.7392294356 ; 4.013162365891695E8 ; 3.8983810485145554E7 ; 2.2422773894891357E10 ; 22792.95999999998
65 ; 704666.4534852197 ; 4.013265663899425E8 ; 3.968792522437499E7 ; 2.2824090131480526E10 ; 23149.09999999998
66 ; 706177.3166621439 ; 4.013369224178531E8 ; 4.039259167786021E7 ; 2.322541669787047E10 ; 23505.23999999998
67 ; 709404.5416836564 ; 4.013473028108257E8 ; 4.109876899452235E7 ; 2.3626753620288322E10 ; 23861.37999999998
68 ; 711719.7186062448 ; 4.0135770579369926E8 ; 4.180817353620601E7 ; 2.4028100923099148E10 ; 24217.51999999998
69 ; 713311.5379542542 ; 4.0136812967295885E8 ; 4.2519893254812256E7 ; 2.4429458628892845E10 ; 24573.659999999978
70 ; 715592.1728258289 ; 4.013785728318149E8 ; 4.323320479276651E7 ; 2.4830826758565804E10 ; 24929.799999999977
71 ; 716603.689399931 ; 4.01389033725609E8 ; 4.394879696559234E7 ; 2.5232205331397617E10 ; 25285.939999999977
72 ; 718378.705382824 ; 4.013995108775209E8 ; 4.466540065499227E7 ; 2.5633594365123226E10 ; 25642.079999999976
73 ; 719650.0120440735 ; 4.0141000287455976E8 ; 4.538377936037509E7 ; 2.6034993876000748E10 ; 25998.219999999976
74 ; 722902.9671479302 ; 4.01420508363817E8 ; 4.610342937241916E7 ; 2.643640387887531E10 ; 26354.359999999975
75 ; 722811.6056427663 ; 4.014310260489658E8 ; 4.6826332339567095E7 ; 2.6837824387239124E10 ; 26710.499999999975
76 ; 725032.4276960505 ; 4.0144155468698776E8 ; 4.754914394520986E7 ; 2.723925541328809E10 ; 27066.639999999974
77 ; 725031.717955786 ; 4.014520930851127E8 ; 4.827417637290591E7 ; 2.764069696797508E10 ; 27422.779999999973
78 ; 728714.2027409407 ; 4.0146264009795594E8 ; 4.899920809086169E7 ; 2.8042149061060192E10 ; 27778.919999999973
79 ; 728125.1193259243 ; 4.0147319462484026E8 ; 4.972792229360263E7 ; 2.844361170115815E10 ; 28135.059999999972
80 ; 730741.9069424977 ; 4.0148375560728943E8 ; 5.045604741292855E7 ; 2.884508489578299E10 ; 28491.19999999997
81 ; 731592.8516885672 ; 4.014943220266807E8 ; 5.1186789319871046E7 ; 2.9246568651390278E10 ; 28847.33999999997
82 ; 734709.7742805146 ; 4.015048929020474E8 ; 5.191838217155961E7 ; 2.9648062973416958E10 ; 29203.47999999997
83 ; 736985.6773477423 ; 4.015154672880185E8 ; 5.265309194584012E7 ; 3.0049567866319004E10 ; 29559.61999999997
84 ; 738160.4841265401 ; 4.01526044272889E8 ; 5.339007762318786E7 ; 3.045108333360702E10 ; 29915.75999999997
85 ; 739796.0934910781 ; 4.0153662297680914E8 ; 5.41282381073144E7 ; 3.085260937787991E10 ; 30271.89999999997
86 ; 741757.4023709884 ; 4.0154720255008626E8 ; 5.486803420080548E7 ; 3.125414600085672E10 ; 30628.039999999968
87 ; 743595.2890600875 ; 4.015577821715918E8 ; 5.560979160317647E7 ; 3.1655693203406807E10 ; 30984.179999999968
88 ; 746644.2014752326 ; 4.015683610472647E8 ; 5.635338689223655E7 ; 3.20572509855784E10 ; 31340.319999999967
89 ; 746866.7371937264 ; 4.015789384087065E8 ; 5.7100031093711786E7 ; 3.2458819346625664E10 ; 31696.459999999966
90 ; 746936.1859363562 ; 4.01589513511861E8 ; 5.784689783090551E7 ; 3.286039828503437E10 ; 32052.599999999966
91 ; 750020.1371205914 ; 4.016000856357735E8 ; 5.8593834016841866E7 ; 3.326198779854623E10 ; 32408.739999999965
92 ; 750310.0598894465 ; 4.016106540814233E8 ; 5.9343854153962456E7 ; 3.3663587884182003E10 ; 32764.879999999965
93 ; 750971.1217029112 ; 4.016212181706259E8 ; 6.00941642138519E7 ; 3.4065198538263428E10 ; 33121.01999999997
94 ; 752556.5272416417 ; 4.016317772450001E8 ; 6.084513533555481E7 ; 3.446681975643405E10 ; 33477.15999999997
95 ; 754973.8149801894 ; 4.0164233066499436E8 ; 6.159769186279645E7 ; 3.4868451533679054E10 ; 33833.29999999997
96 ; 756847.7709274715 ; 4.0165287780897045E8 ; 6.2352665677776635E7 ; 3.527009386434405E10 ; 34189.439999999966
97 ; 757680.4431060698 ; 4.0166341807234013E8 ; 6.310951344870411E7 ; 3.5671746742153015E10 ; 34545.579999999965
98 ; 759077.5196823012 ; 4.016739508667504E8 ; 6.386719389181018E7 ; 3.607341016022536E10 ; 34901.719999999965
99 ; 758401.9453482527 ; 4.01684475619316E8 ; 6.462627141149248E7 ; 3.647508411109211E10 ; 35257.859999999964
100 ; 760192.174363746 ; 4.0169499177189434E8 ; 6.538467335684074E7 ; 3.6876768586711426E10 ; 35613.99999999996
101 ; 762663.3827548306 ; 4.017054987804022E8 ; 6.6144865531204484E7 ; 3.727846357848332E10 ; 35970.13999999996
102 ; 762766.930783489 ; 4.0171599611416924E8 ; 6.690752891395932E7 ; 3.7680169077263725E10 ; 36326.27999999996
103 ; 763218.0020003566 ; 4.0172648325532824E8 ; 6.76702958447428E7 ; 3.808188507337789E10 ; 36682.41999999996
104 ; 766374.1230410452 ; 4.017369596982386E8 ; 6.843351384674317E7 ; 3.848361155663322E10 ; 37038.55999999996
105 ; 767041.3622532047 ; 4.01747424948941E8 ; 6.919988796978422E7 ; 3.888534851633146E10 ; 37394.69999999996
106 ; 769031.0320490265 ; 4.017578785246418E8 ; 6.996692933203742E7 ; 3.92870959412804E10 ; 37750.83999999996
107 ; 768236.8573257723 ; 4.017683199532255E8 ; 7.073596036408645E7 ; 3.9688853819805046E10 ; 38106.97999999996
108 ; 768994.0356745556 ; 4.017787487727929E8 ; 7.150419722141223E7 ; 4.009062213975827E10 ; 38463.11999999996
109 ; 770317.9666684001 ; 4.0178916453122354E8 ; 7.227319125708678E7 ; 4.049240088853107E10 ; 38819.25999999996
110 ; 773931.5329479715 ; 4.0179956678576225E8 ; 7.304350922375518E7 ; 4.0894190053062294E10 ; 39175.39999999996
111 ; 772409.814367741 ; 4.0180995510262614E8 ; 7.381744075670315E7 ; 4.129598961984805E10 ; 39531.53999999996
112 ; 774819.3113308118 ; 4.018203290566329E8 ; 7.45898505710709E7 ; 4.1697799574950676E10 ; 39887.67999999996
113 ; 775115.229045601 ; 4.0183068823084784E8 ; 7.53646698824017E7 ; 4.209961990400731E10 ; 40243.819999999956
114 ; 775642.7990913992 ; 4.0184103221624947E8 ; 7.61397851114473E7 ; 4.250145059223816E10 ; 40599.959999999955
115 ; 775117.7527395285 ; 4.0185136061141175E8 ; 7.69154279105387E7 ; 4.290329162445441E10 ; 40956.099999999955
116 ; 776739.7695602684 ; 4.018616730222028E8 ; 7.769054566327824E7 ; 4.330514298506582E10 ; 41312.239999999954
117 ; 778527.8313230663 ; 4.0187196906149846E8 ; 7.84672854328385E7 ; 4.370700465808802E10 ; 41668.379999999954
118 ; 778426.671813567 ; 4.0188224834891057E8 ; 7.924581326416157E7 ; 4.410887662714952E10 ; 42024.51999999995
119 ; 779474.1784064412 ; 4.0189251051052827E8 ; 8.002423993597513E7 ; 4.451075887549843E10 ; 42380.65999999995
120 ; 780232.0945517131 ; 4.019027551786727E8 ; 8.080371411438158E7 ; 4.491265138600896E10 ; 42736.79999999995
121 ; 781482.8700178019 ; 4.019129819916631E8 ; 8.15839462089333E7 ; 4.531455414118763E10 ; 43092.93999999995
122 ; 781700.5998528566 ; 4.019231905935951E8 ; 8.236542907895109E7 ; 4.571646712317929E10 ; 43449.07999999995
123 ; 780348.8046207032 ; 4.019333806341287E8 ; 8.314712967880395E7 ; 4.611839031377289E10 ; 43805.21999999995
124 ; 782723.7981020886 ; 4.0194355176828766E8 ; 8.392747848342465E7 ; 4.652032369440702E10 ; 44161.35999999995
125 ; 779895.0498142014 ; 4.0195370365626764E8 ; 8.471020228152674E7 ; 4.692226724617531E10 ; 44517.49999999995
126 ; 780953.6112117831 ; 4.0196383596325374E8 ; 8.549009733134094E7 ; 4.732422094983157E10 ; 44873.63999999995
127 ; 780840.4694692494 ; 4.0197394835924697E8 ; 8.627105094255272E7 ; 4.772618478579483E10 ; 45229.77999999995
128 ; 780106.9832523266 ; 4.0198404051889837E8 ; 8.705189141202196E7 ; 4.8128158734154076E10 ; 45585.91999999995
129 ; 778668.0215249177 ; 4.019941121213515E8 ; 8.78319983952743E7 ; 4.853014277467297E10 ; 45942.05999999995
130 ; 780359.2337267526 ; 4.020041628500913E8 ; 8.861066641679922E7 ; 4.893213688679433E10 ; 46298.199999999946
131 ; 779955.9084807162 ; 4.0201419239280134E8 ; 8.939102565052597E7 ; 4.933414104964442E10 ; 46654.339999999946
132 ; 780086.232413738 ; 4.0202420044122636E8 ; 9.017098155900669E7 ; 4.973615524203722E10 ; 47010.479999999945
133 ; 779592.8747322442 ; 4.020341866910416E8 ; 9.095106779142043E7 ; 5.013817944247844E10 ; 47366.619999999944
134 ; 779832.1901547336 ; 4.020441508417285E8 ; 9.173066066615267E7 ; 5.054021362916948E10 ; 47722.759999999944
135 ; 779357.708305543 ; 4.020540925964551E8 ; 9.25104928563074E7 ; 5.094225778001121E10 ; 48078.89999999994
136 ; 781277.4788846689 ; 4.020640116619626E8 ; 9.328985056461294E7 ; 5.1344311872607666E10 ; 48435.03999999994
137 ; 780442.4843334154 ; 4.020739077484567E8 ; 9.40711280434976E7 ; 5.174637588426963E10 ; 48791.17999999994
138 ; 783050.9369894129 ; 4.020837805695038E8 ; 9.485157052783102E7 ; 5.214844979201809E10 ; 49147.31999999994
139 ; 780306.8337891417 ; 4.020936298419317E8 ; 9.563462146482043E7 ; 5.255053357258759E10 ; 49503.45999999994
140 ; 781741.1521914492 ; 4.0210345528573513E8 ; 9.641492829860957E7 ; 5.295262720242953E10 ; 49859.59999999994
141 ; 781690.125800236 ; 4.021132566239846E8 ; 9.719666945080101E7 ; 5.335473065771526E10 ; 50215.73999999994
142 ; 780739.6820426952 ; 4.0212303358274007E8 ; 9.797835957660125E7 ; 5.375684391433925E10 ; 50571.87999999994
143 ; 781829.5460168566 ; 4.0213278589096785E8 ; 9.875909925864394E7 ; 5.415896694792199E10 ; 50928.01999999994
144 ; 780370.1578015345 ; 4.021425132804613E8 ; 9.95409288046608E7 ; 5.456109973381296E10 ; 51284.15999999994
145 ; 783670.8019795745 ; 4.021522154857651E8 ; 1.0032129896246234E8 ; 5.496324224709342E10 ; 51640.29999999994
146 ; 785047.574666301 ; 4.0216189224410206E8 ; 1.011049697644419E8 ; 5.5365394462579185E10 ; 51996.43999999994
147 ; 787255.5964532834 ; 4.021715432953042E8 ; 1.0189001733910821E8 ; 5.576755635482329E10 ; 52352.579999999936
148 ; 787488.8984783054 ; 4.0218116838174534E8 ; 1.026772729355615E8 ; 5.616972789811859E10 ; 52708.719999999936
149 ; 788249.6775343561 ; 4.021907672482783E8 ; 1.0346476183403979E8 ; 5.6571909066500336E10 ; 53064.859999999935
150 ; 791145.4596665354 ; 4.022003396421729E8 ; 1.0425301151157415E8 ; 5.697409983374861E10 ; 53420.999999999935
151 ; 792209.1693160898 ; 4.022098853130576E8 ; 1.0504415697124068E8 ; 5.7376300173390785E10 ; 53777.139999999934
152 ; 793080.0033853777 ; 4.022194040128638E8 ; 1.0583636614055677E8 ; 5.777851005870384E10 ; 54133.27999999993
153 ; 794466.1387565533 ; 4.0222889549577165E8 ; 1.0662944614394215E8 ; 5.8180729462716705E10 ; 54489.41999999993
154 ; 796206.7106088487 ; 4.022383595181587E8 ; 1.074239122826987E8 ; 5.858295835821248E10 ; 54845.55999999993
155 ; 800618.5146286597 ; 4.022477958385501E8 ; 1.0822011899330756E8 ; 5.898519671773064E10 ; 55201.69999999993
156 ; 801940.7129447251 ; 4.0225720421757185E8 ; 1.0902073750793622E8 ; 5.938744451356918E10 ; 55557.83999999993
157 ; 803461.358298862 ; 4.02266584417905E8 ; 1.0982267822088096E8 ; 5.978970171778676E10 ; 55913.97999999993
158 ; 805576.551123666 ; 4.0227593620424163E8 ; 1.1062613957917982E8 ; 6.0191968302204666E10 ; 56270.11999999993
159 ; 808803.6979693464 ; 4.022852593432441E8 ; 1.1143171613030349E8 ; 6.0594244238408905E10 ; 56626.25999999993
160 ; 808707.359327491 ; 4.022945536035037E8 ; 1.1224051982827283E8 ; 6.099652949775215E10 ; 56982.39999999993
161 ; 810902.1243255452 ; 4.0230381875550306E8 ; 1.1304922718760033E8 ; 6.139882405135565E10 ; 57338.53999999993
162 ; 813162.5231121521 ; 4.0231305457157886E8 ; 1.1386012931192587E8 ; 6.180112787011115E10 ; 57694.67999999993
163 ; 815654.5040891255 ; 4.0232226082588613E8 ; 1.1467329183503802E8 ; 6.220344092468273E10 ; 58050.81999999993
164 ; 814915.4164056568 ; 4.0233143729436463E8 ; 1.1548894633912715E8 ; 6.260576318550862E10 ; 58406.95999999993
165 ; 816895.4798149222 ; 4.02340583754706E8 ; 1.1630386175553282E8 ; 6.3008094622802986E10 ; 58763.099999999926
166 ; 818609.2163977857 ; 4.023496999863224E8 ; 1.1712075723534773E8 ; 6.341043520655769E10 ; 59119.239999999925
167 ; 821687.163986209 ; 4.02358785770316E8 ; 1.1793936645174553E8 ; 6.3812784906544014E10 ; 59475.379999999925
168 ; 822744.2319381351 ; 4.0236784088945085E8 ; 1.1876105361573173E8 ; 6.421514369231433E10 ; 59831.519999999924
169 ; 822505.9658839784 ; 4.023768651281242E8 ; 1.1958379784766987E8 ; 6.461751153320378E10 ; 60187.65999999992
170 ; 824899.092225917 ; 4.0238585827234036E8 ; 1.2040630381355385E8 ; 6.50198883983319E10 ; 60543.79999999992
171 ; 826318.9609687527 ; 4.0239482010968494E8 ; 1.2123120290577978E8 ; 6.542227425660424E10 ; 60899.93999999992
172 ; 828570.5635630287 ; 4.024037504293001E8 ; 1.2205752186674853E8 ; 6.582466907671393E10 ; 61256.07999999992
173 ; 830260.4335492364 ; 4.024126490218611E8 ; 1.2288609243031156E8 ; 6.622707282714323E10 ; 61612.21999999992
174 ; 834383.0223906388 ; 4.0242151567955303E8 ; 1.237163528638608E8 ; 6.6629485476165085E10 ; 61968.35999999992
175 ; 835419.0911044442 ; 4.024303501960498E8 ; 1.2455073588625143E8 ; 6.7031906991844635E10 ; 62324.49999999992
176 ; 836967.4900251825 ; 4.024391523664924E8 ; 1.2538615497735588E8 ; 6.743433734204069E10 ; 62680.63999999992
177 ; 838825.900718724 ; 4.0244792198746896E8 ; 1.2622312246738106E8 ; 6.783677649440718E10 ; 63036.77999999992
