CSV File for the Network on Day 309
1 - Minute m 
2 - Power Consumed at minute m 
3 - Power Produced at minute m 
4 - Energy Consumed since the beginning of the day 
5 - Energy Produced since the beginning of the day 
6 - Energy Lost since the beginning of the day 
 
0 ; 4604759.259699871 ; 2.1159869803991812E8 ; 0.0 ; 0.0 ; 0.0
1 ; 4609986.572423672 ; 2.119043913393466E8 ; 4604759.259699871 ; 2.1159869803991812E8 ; 356.14
2 ; 4613734.563532381 ; 2.1282767257170784E8 ; 9214745.832123544 ; 4.235030893792647E8 ; 712.28
3 ; 4619618.835961206 ; 2.1436854384039736E8 ; 1.3828480395655926E7 ; 6.363307619509726E8 ; 1068.42
4 ; 4624060.77907376 ; 2.165270070196569E8 ; 1.844809923161713E7 ; 8.506993057913699E8 ; 1424.56
5 ; 4627428.926340453 ; 2.1930306374789405E8 ; 2.307216001069089E7 ; 1.0672263128110268E9 ; 1780.6999999999998
6 ; 4633120.270209986 ; 2.226967154217716E8 ; 2.7699588937031344E7 ; 1.2865293765589209E9 ; 2136.8399999999997
7 ; 4636617.996105728 ; 2.267079631911173E8 ; 3.233270920724133E7 ; 1.5092260919806924E9 ; 2492.9799999999996
8 ; 4640738.836288361 ; 2.3133680795469677E8 ; 3.696932720334706E7 ; 1.7359340551718097E9 ; 2849.1199999999994
9 ; 4644630.584997883 ; 2.3658325035688722E8 ; 4.161006603963542E7 ; 1.9672708631265063E9 ; 3205.2599999999993
10 ; 4647289.554774887 ; 2.4244729078527987E8 ; 4.6254696624633305E7 ; 2.2038541134833937E9 ; 3561.399999999999
11 ; 4649952.359822321 ; 2.4892892936923295E8 ; 5.090198617940819E7 ; 2.4463014042686734E9 ; 3917.539999999999
12 ; 4655254.250916184 ; 2.5602816597938818E8 ; 5.555193853923051E7 ; 2.6952303336379066E9 ; 4273.679999999999
13 ; 4658785.026053841 ; 2.637450002281543E8 ; 6.020719279014669E7 ; 2.951258499617295E9 ; 4629.82
14 ; 4663137.452893606 ; 2.7207943147115433E8 ; 6.486597781620053E7 ; 3.215003499845449E9 ; 4985.96
15 ; 4666195.125446418 ; 2.810314588096224E8 ; 6.952911526909414E7 ; 3.487082931316603E9 ; 5342.1
16 ; 4670798.67173579 ; 2.90601081093731E8 ; 7.419531039454056E7 ; 3.7681143901262255E9 ; 5698.240000000001
17 ; 4675281.159653835 ; 3.007882969268171E8 ; 7.886610906627636E7 ; 4.0587154712199564E9 ; 6054.380000000001
18 ; 4676055.821375104 ; 3.115931046704733E8 ; 8.354139022593018E7 ; 4.359503768146773E9 ; 6410.520000000001
19 ; 4680316.59669105 ; 3.230155024504577E8 ; 8.821744604730529E7 ; 4.671096872817246E9 ; 6766.660000000002
20 ; 4681419.366324158 ; 3.3505548816337484E8 ; 9.289776264399633E7 ; 4.994112375267704E9 ; 7122.800000000002
21 ; 4686599.273140242 ; 3.4771305948407114E8 ; 9.757918201032048E7 ; 5.329167863431079E9 ; 7478.940000000002
22 ; 4689706.904662622 ; 3.609882138736848E8 ; 1.0226578128346072E8 ; 5.67688092291515E9 ; 7835.080000000003
23 ; 4695563.569477505 ; 3.748809485882873E8 ; 1.0695548818812335E8 ; 6.037869136788835E9 ; 8191.220000000003
24 ; 4697775.834111858 ; 3.8939126068804675E8 ; 1.1165105175760084E8 ; 6.412750085377122E9 ; 8547.360000000002
25 ; 4703003.638739097 ; 4.018952288432156E8 ; 1.163488275917127E8 ; 6.802141346065168E9 ; 8903.500000000002
26 ; 4706006.49943226 ; 4.0189994541792446E8 ; 1.2105183123045179E8 ; 7.204036574908384E9 ; 9259.640000000001
27 ; 4709055.842342576 ; 4.019049455303066E8 ; 1.2575783772988406E8 ; 7.605936520326309E9 ; 9615.78
28 ; 4713873.868344346 ; 4.0191022555660295E8 ; 1.3046689357222663E8 ; 8.007841465856616E9 ; 9971.92
29 ; 4713492.403938788 ; 4.019157817283881E8 ; 1.3518076744057098E8 ; 8.409751691413219E9 ; 10328.06
30 ; 4716884.053405476 ; 4.0192161014341295E8 ; 1.3989425984450978E8 ; 8.811667473141607E9 ; 10684.199999999999
31 ; 4714031.054825813 ; 4.0192770677649057E8 ; 1.4461114389791524E8 ; 9.21358908328502E9 ; 11040.339999999998
32 ; 4713112.425915346 ; 4.019340674903643E8 ; 1.4932517495274106E8 ; 9.615516790061512E9 ; 11396.479999999998
33 ; 4708714.165785983 ; 4.019406880464988E8 ; 1.540382873786564E8 ; 1.0017450857551876E10 ; 11752.619999999997
34 ; 4707528.034916374 ; 4.019475641157421E8 ; 1.5874700154444236E8 ; 1.0419391545598375E10 ; 12108.759999999997
35 ; 4705401.064721252 ; 4.019546912888085E8 ; 1.6345452957935873E8 ; 1.0821339109714117E10 ; 12464.899999999996
36 ; 4700682.154968343 ; 4.019620650865363E8 ; 1.6815993064407998E8 ; 1.1223293801002926E10 ; 12821.039999999995
37 ; 4698247.0429150835 ; 4.019696809698812E8 ; 1.7286061279904833E8 ; 1.1625255866089462E10 ; 13177.179999999995
38 ; 4696634.957030183 ; 4.019775343496098E8 ; 1.775588598419634E8 ; 1.2027225547059343E10 ; 13533.319999999994
39 ; 4693351.255378844 ; 4.019856205956609E8 ; 1.822554947989936E8 ; 1.2429203081408953E10 ; 13889.459999999994
40 ; 4691830.895366193 ; 4.0199393504614925E8 ; 1.8694884605437243E8 ; 1.2831188702004614E10 ; 14245.599999999993
41 ; 4688383.280170614 ; 4.0200247301598954E8 ; 1.9164067694973862E8 ; 1.3233182637050762E10 ; 14601.739999999993
42 ; 4683324.129486653 ; 4.020112298051233E8 ; 1.9632906022990924E8 ; 1.3635185110066751E10 ; 14957.879999999992
43 ; 4681057.421629216 ; 4.0202020070633495E8 ; 2.010123843593959E8 ; 1.4037196339871876E10 ; 15314.019999999991
44 ; 4677962.733644696 ; 4.020293810126476E8 ; 2.056934417810251E8 ; 1.443921654057821E10 ; 15670.15999999999
45 ; 4673086.54358921 ; 4.0203876602429295E8 ; 2.103714045146698E8 ; 1.4841245921590858E10 ; 16026.29999999999
46 ; 4673737.596325842 ; 4.020483510552525E8 ; 2.15044491058259E8 ; 1.524328468761515E10 ; 16382.43999999999
47 ; 4668601.720311342 ; 4.020581314393704E8 ; 2.1971822865458485E8 ; 1.5645333038670403E10 ; 16738.57999999999
48 ; 4665782.515604397 ; 4.0206810253604233E8 ; 2.243868303748962E8 ; 1.6047391170109774E10 ; 17094.71999999999
49 ; 4661291.327422563 ; 4.0207825973548436E8 ; 2.290526128905006E8 ; 1.6449459272645817E10 ; 17450.85999999999
50 ; 4656416.232962805 ; 4.020885984635919E8 ; 2.3371390421792316E8 ; 1.6851537532381302E10 ; 17806.99999999999
51 ; 4652952.487696474 ; 4.0209911418639636E8 ; 2.3837032045088598E8 ; 1.7253626130844894E10 ; 18163.13999999999
52 ; 4650218.724142345 ; 4.021098024141335E8 ; 2.4302327293858245E8 ; 1.7655725245031292E10 ; 18519.279999999988
53 ; 4644547.913036227 ; 4.021206587049334E8 ; 2.476734916627248E8 ; 1.8057835047445427E10 ; 18875.419999999987
54 ; 4640926.425980307 ; 4.021316786681493E8 ; 2.5231803957576102E8 ; 1.845995570615036E10 ; 19231.559999999987
55 ; 4634919.003748645 ; 4.021428579673369E8 ; 2.5695896600174132E8 ; 1.886208738481851E10 ; 19587.699999999986
56 ; 4631967.317242432 ; 4.021541923229022E8 ; 2.6159388500548998E8 ; 1.9264230242785847E10 ; 19943.839999999986
57 ; 4628240.344512063 ; 4.0216567751443267E8 ; 2.6622585232273242E8 ; 1.966638443510875E10 ; 20299.979999999985
58 ; 4624368.95950833 ; 4.0217730938272804E8 ; 2.708540926672445E8 ; 2.006855011262318E10 ; 20656.119999999984
59 ; 4622478.137911644 ; 4.021890838315473E8 ; 2.7547846162675285E8 ; 2.047072742200591E10 ; 21012.259999999984
60 ; 4618320.877999907 ; 4.0220099682908916E8 ; 2.801009397646645E8 ; 2.0872916505837456E10 ; 21368.399999999983
61 ; 4612199.513724561 ; 4.022130444092207E8 ; 2.847192606426644E8 ; 2.1275117502666546E10 ; 21724.539999999983
62 ; 4609427.539548639 ; 4.0222522267247206E8 ; 2.8933146015638894E8 ; 2.1677330547075768E10 ; 22080.679999999982
63 ; 4607973.3389334725 ; 4.022375277868114E8 ; 2.939408876959376E8 ; 2.207955576974824E10 ; 22436.81999999998
64 ; 4602552.932249158 ; 4.022499559882171E8 ; 2.9854886103487104E8 ; 2.2481793297535053E10 ; 22792.95999999998
65 ; 4598009.830572243 ; 4.022625035810609E8 ; 3.031514139671202E8 ; 2.288404325352327E10 ; 23149.09999999998
66 ; 4594567.297214849 ; 4.022751669383165E8 ; 3.077494237976924E8 ; 2.3286305757104332E10 ; 23505.23999999998
67 ; 4591097.953595079 ; 4.0228794250160915E8 ; 3.123439910949073E8 ; 2.368858092404265E10 ; 23861.37999999998
68 ; 4586534.219562435 ; 4.0230082678111684E8 ; 3.169350890485024E8 ; 2.409086886654426E10 ; 24217.51999999998
69 ; 4582314.470755412 ; 4.023138163553384E8 ; 3.215216232680648E8 ; 2.4493169693325375E10 ; 24573.659999999978
70 ; 4575986.871259346 ; 4.0232690787073857E8 ; 3.261039377388202E8 ; 2.4895483509680714E10 ; 24929.799999999977
71 ; 4571955.8106820425 ; 4.0234009804128325E8 ; 3.306799246100795E8 ; 2.5297810417551453E10 ; 25285.939999999977
72 ; 4566752.2048557205 ; 4.023533836478743E8 ; 3.352518804207616E8 ; 2.5700150515592735E10 ; 25642.079999999976
73 ; 4562682.41541206 ; 4.023667615376948E8 ; 3.398186326256173E8 ; 2.610250389924061E10 ; 25998.219999999976
74 ; 4559102.102479643 ; 4.023802286234747E8 ; 3.443813150410294E8 ; 2.65048706607783E10 ; 26354.359999999975
75 ; 4552310.235870427 ; 4.0239378188268495E8 ; 3.4894041714350903E8 ; 2.6907250889401775E10 ; 26710.499999999975
76 ; 4547625.839278308 ; 4.024074183566695E8 ; 3.5349272737937945E8 ; 2.7309644671284462E10 ; 27066.639999999974
77 ; 4544560.079075283 ; 4.02421135149722E8 ; 3.5804035321865773E8 ; 2.7712052089641132E10 ; 27422.779999999973
78 ; 4538008.960566936 ; 4.024349294281157E8 ; 3.62584913297733E8 ; 2.8114473224790855E10 ; 27778.919999999973
79 ; 4535530.653352758 ; 4.024487984190923E8 ; 3.6712292225829995E8 ; 2.851690815421897E10 ; 28135.059999999972
80 ; 4530339.813164914 ; 4.0246273940981615E8 ; 3.716584529116527E8 ; 2.8919356952638065E10 ; 28491.19999999997
81 ; 4523447.737517044 ; 4.0247674974630046E8 ; 3.761887927248176E8 ; 2.9321819692047882E10 ; 28847.33999999997
82 ; 4523437.160170894 ; 4.024908268323094E8 ; 3.8071224046233463E8 ; 2.972429644179418E10 ; 29203.47999999997
83 ; 4515266.10917941 ; 4.025049681282426E8 ; 3.8523567762250555E8 ; 3.012678726862649E10 ; 29559.61999999997
84 ; 4513440.10106421 ; 4.0251917115000504E8 ; 3.89750943731685E8 ; 3.0529292236754734E10 ; 29915.75999999997
85 ; 4506593.074165617 ; 4.025334334678672E8 ; 3.942643838327492E8 ; 3.093181140790474E10 ; 30271.89999999997
86 ; 4503949.145362258 ; 4.025477527053194E8 ; 3.9877097690691483E8 ; 3.133434484137261E10 ; 30628.039999999968
87 ; 4496252.34568703 ; 4.02562126537923E8 ; 4.032749260522771E8 ; 3.1736892594077927E10 ; 30984.179999999968
88 ; 4493244.677025028 ; 4.0257655269216204E8 ; 4.077711783979641E8 ; 3.213945472061585E10 ; 31340.319999999967
89 ; 4487604.98862536 ; 4.025910289442978E8 ; 4.1226442307498914E8 ; 3.254203127330801E10 ; 31696.459999999966
90 ; 4482277.9312208565 ; 4.0260555311922914E8 ; 4.167520280636145E8 ; 3.2944622302252308E10 ; 32052.599999999966
91 ; 4477332.597573394 ; 4.0262012308936036E8 ; 4.212343059948353E8 ; 3.3347227855371536E10 ; 32408.739999999965
92 ; 4472118.499949541 ; 4.02634736773479E8 ; 4.257116385924087E8 ; 3.3749847978460896E10 ; 32764.879999999965
93 ; 4467701.431183355 ; 4.0264939213564456E8 ; 4.3018375709235823E8 ; 3.4152482715234375E10 ; 33121.01999999997
94 ; 4460153.206931861 ; 4.0266408718409115E8 ; 4.3465145852354157E8 ; 3.455513210737002E10 ; 33477.15999999997
95 ; 4455806.804400093 ; 4.02678819970144E8 ; 4.3911161173047346E8 ; 3.495779619455411E10 ; 33833.29999999997
96 ; 4449063.42812737 ; 4.026935885871513E8 ; 4.4356741853487355E8 ; 3.5360475014524254E10 ; 34189.439999999966
97 ; 4444264.955288658 ; 4.027083911694331E8 ; 4.480164819630009E8 ; 3.5763168603111404E10 ; 34545.579999999965
98 ; 4439339.337457165 ; 4.02723225891248E8 ; 4.5246074691828954E8 ; 3.616587699428084E10 ; 34901.719999999965
99 ; 4432790.122819568 ; 4.0273809096577656E8 ; 4.569000862557467E8 ; 3.656860022017209E10 ; 35257.859999999964
100 ; 4427868.731279043 ; 4.027529846441256E8 ; 4.6133287637856627E8 ; 3.697133831113786E10 ; 35613.99999999996
101 ; 4422990.998905697 ; 4.027679052143502E8 ; 4.657607451098453E8 ; 3.737409129578199E10 ; 35970.13999999996
102 ; 4418513.824910128 ; 4.0278285100049627E8 ; 4.70183736108751E8 ; 3.777685920099634E10 ; 36326.27999999996
103 ; 4412442.327160954 ; 4.0279782036166286E8 ; 4.746022499336611E8 ; 3.817964205199683E10 ; 36682.41999999996
104 ; 4405753.277224973 ; 4.028128116910845E8 ; 4.7901469226082206E8 ; 3.85824398723585E10 ; 37038.55999999996
105 ; 4403921.522387591 ; 4.028278234152349E8 ; 4.83420445538047E8 ; 3.898525268404958E10 ; 37394.69999999996
106 ; 4394561.197376842 ; 4.0284285399294984E8 ; 4.878243670604346E8 ; 3.938808050746482E10 ; 37750.83999999996
107 ; 4391059.881764853 ; 4.028579019145713E8 ; 4.922189282578114E8 ; 3.979092336145777E10 ; 38106.97999999996
108 ; 4386677.691608016 ; 4.0287296570111233E8 ; 4.9660998813957626E8 ; 4.0193781263372345E10 ; 38463.11999999996
109 ; 4379241.940614965 ; 4.0288804390344125E8 ; 5.0099666583118427E8 ; 4.0596654229073456E10 ; 38819.25999999996
110 ; 4374875.752081422 ; 4.029031351014873E8 ; 5.053759077717992E8 ; 4.09995422729769E10 ; 39175.39999999996
111 ; 4369129.908989141 ; 4.029182379034653E8 ; 5.097507835238806E8 ; 4.1402445408078384E10 ; 39531.53999999996
112 ; 4362922.437645221 ; 4.029333509451209E8 ; 5.1411991343286973E8 ; 4.180536364598185E10 ; 39887.67999999996
113 ; 4357906.286401896 ; 4.029484728889951E8 ; 5.184828358705149E8 ; 4.220829699692697E10 ; 40243.819999999956
114 ; 4349455.796920224 ; 4.029636024237083E8 ; 5.228407421569168E8 ; 4.261124546981596E10 ; 40599.959999999955
115 ; 4345997.278641467 ; 4.02978738263263E8 ; 5.2719019795383704E8 ; 4.301420907223967E10 ; 40956.099999999955
116 ; 4338055.637787988 ; 4.0299387914636594E8 ; 5.315361952324785E8 ; 4.341718781050293E10 ; 41312.239999999954
117 ; 4335316.548333826 ; 4.03009023835768E8 ; 5.358742508702665E8 ; 4.382018168964929E10 ; 41668.379999999954
118 ; 4328808.203222133 ; 4.0302417111762273E8 ; 5.402095674186003E8 ; 4.422319071348506E10 ; 42024.51999999995
119 ; 4320381.486658729 ; 4.030393198008622E8 ; 5.445383756218225E8 ; 4.4626214884602684E10 ; 42380.65999999995
120 ; 4315642.315963741 ; 4.030544687165909E8 ; 5.488587571084812E8 ; 4.502925420440355E10 ; 42736.79999999995
121 ; 4310023.463873609 ; 4.0306961671749556E8 ; 5.531743994244449E8 ; 4.543230867312014E10 ; 43092.93999999995
122 ; 4303027.063677177 ; 4.0308476267727304E8 ; 5.574844228883185E8 ; 4.583537828983764E10 ; 43449.07999999995
123 ; 4298203.286052017 ; 4.030999054900732E8 ; 5.617874499519957E8 ; 4.6238463052514915E10 ; 43805.21999999995
124 ; 4291050.265283047 ; 4.031150440699587E8 ; 5.660856532380477E8 ; 4.664156295800499E10 ; 44161.35999999995
125 ; 4283367.291479144 ; 4.0313017735037965E8 ; 5.703767035033307E8 ; 4.704467800207495E10 ; 44517.49999999995
126 ; 4276224.229393001 ; 4.0314530428366387E8 ; 5.746600707948098E8 ; 4.744780817942533E10 ; 44873.63999999995
127 ; 4268385.280860811 ; 4.031604238405216E8 ; 5.789362950242028E8 ; 4.785095348370899E10 ; 45229.77999999995
128 ; 4262251.022008071 ; 4.0317553500956506E8 ; 5.832046803050636E8 ; 4.8254113907549515E10 ; 45585.91999999995
129 ; 4256351.894346851 ; 4.031906367968416E8 ; 5.874669313270717E8 ; 4.865728944255908E10 ; 45942.05999999995
130 ; 4246536.473920395 ; 4.032057282253808E8 ; 5.917232832214185E8 ; 4.906048007935593E10 ; 46298.199999999946
131 ; 4238733.996187542 ; 4.032208083347546E8 ; 5.959698196953388E8 ; 4.946368580758131E10 ; 46654.339999999946
132 ; 4234107.732163986 ; 4.032358761806512E8 ; 6.002085536915264E8 ; 4.986690661591606E10 ; 47010.479999999945
133 ; 4225682.806009056 ; 4.0325093083446026E8 ; 6.044426614236904E8 ; 5.027014249209671E10 ; 47366.619999999944
134 ; 4220149.052628981 ; 4.032659713828715E8 ; 6.086683442296995E8 ; 5.067339342293117E10 ; 47722.759999999944
135 ; 4214186.6938891765 ; 4.0328099692748487E8 ; 6.128884932823285E8 ; 5.107665939431404E10 ; 48078.89999999994
136 ; 4207331.212387871 ; 4.03296006584432E8 ; 6.171026799762176E8 ; 5.147994039124152E10 ; 48435.03999999994
137 ; 4202490.903232704 ; 4.0331099948400915E8 ; 6.213100111886055E8 ; 5.188323639782596E10 ; 48791.17999999994
138 ; 4192721.286538512 ; 4.033259747703213E8 ; 6.255125020918382E8 ; 5.228654739730997E10 ; 49147.31999999994
139 ; 4186956.4707558975 ; 4.0334093160093665E8 ; 6.297052233783767E8 ; 5.268987337208029E10 ; 49503.45999999994
140 ; 4178919.164351706 ; 4.0335586914655113E8 ; 6.338921798491327E8 ; 5.309321430368123E10 ; 49859.59999999994
141 ; 4171351.588553076 ; 4.033707865906638E8 ; 6.380710990134844E8 ; 5.349657017282778E10 ; 50215.73999999994
142 ; 4166297.2934050024 ; 4.033856831292606E8 ; 6.422424506020374E8 ; 5.389994095941844E10 ; 50571.87999999994
143 ; 4160304.989989193 ; 4.034005579705093E8 ; 6.464087478954425E8 ; 5.43033266425477E10 ; 50928.01999999994
144 ; 4152609.268426133 ; 4.034154103344618E8 ; 6.505690528854316E8 ; 5.470672720051821E10 ; 51284.15999999994
145 ; 4147067.29720299 ; 4.034302394527668E8 ; 6.547216621538578E8 ; 5.511014261085268E10 ; 51640.29999999994
146 ; 4140389.667983789 ; 4.034450445683898E8 ; 6.588687294510608E8 ; 5.551357285030544E10 ; 51996.43999999994
147 ; 4135405.3228934766 ; 4.034598249353428E8 ; 6.630091191190445E8 ; 5.591701789487383E10 ; 52352.579999999936
148 ; 4129154.60815665 ; 4.034745798184209E8 ; 6.67144524441938E8 ; 5.632047771980917E10 ; 52708.719999999936
149 ; 4126605.470017938 ; 4.0348930849294734E8 ; 6.712736790500947E8 ; 5.6723952299627594E10 ; 53064.859999999935
150 ; 4119954.4089390356 ; 4.0350401024452627E8 ; 6.754002845201126E8 ; 5.7127441608120544E10 ; 53420.999999999935
151 ; 4115829.279823173 ; 4.035186843688024E8 ; 6.795202389290516E8 ; 5.7530945618365074E10 ; 53777.139999999934
152 ; 4107084.1423045797 ; 4.0353333017122865E8 ; 6.836360682088748E8 ; 5.793446430273388E10 ; 54133.27999999993
153 ; 4104038.077714639 ; 4.035479469668396E8 ; 6.877431523511794E8 ; 5.8337997632905106E10 ; 54489.41999999993
154 ; 4097065.930950545 ; 4.035625340800327E8 ; 6.91847190428894E8 ; 5.874154557987195E10 ; 54845.55999999993
155 ; 4093079.542078394 ; 4.035770908443556E8 ; 6.959442563598446E8 ; 5.914510811395198E10 ; 55201.69999999993
156 ; 4087797.5800574087 ; 4.035916166022996E8 ; 7.00037335901923E8 ; 5.954868520479633E10 ; 55557.83999999993
157 ; 4084780.6310519665 ; 4.036061107050996E8 ; 7.041251334819803E8 ; 5.9952276821398636E10 ; 55913.97999999993
158 ; 4079319.5251250844 ; 4.0362057251254E8 ; 7.082099141130323E8 ; 6.035588293210374E10 ; 56270.11999999993
159 ; 4073637.547511647 ; 4.036350013927659E8 ; 7.122892336381574E8 ; 6.075950350461628E10 ; 56626.25999999993
160 ; 4070353.4713071333 ; 4.0364939672210026E8 ; 7.163628711856691E8 ; 6.116313850600905E10 ; 56982.39999999993
161 ; 4062994.119869904 ; 4.036637578848666E8 ; 7.204332246569762E8 ; 6.156678790273115E10 ; 57338.53999999993
162 ; 4057437.9916499523 ; 4.036780842732165E8 ; 7.244962187768462E8 ; 6.197045166061601E10 ; 57694.67999999993
163 ; 4049527.2822683547 ; 4.036923752869625E8 ; 7.285536567684962E8 ; 6.237412974488923E10 ; 58050.81999999993
164 ; 4044117.2477109055 ; 4.037066303334161E8 ; 7.326031840507646E8 ; 6.277782212017619E10 ; 58406.95999999993
165 ; 4040750.618077642 ; 4.0372084882722986E8 ; 7.366473012984755E8 ; 6.318152875050961E10 ; 58763.099999999926
166 ; 4034044.658045794 ; 4.037350301902448E8 ; 7.406880519165531E8 ; 6.3585249599336845E10 ; 59119.239999999925
167 ; 4027615.0507674175 ; 4.037491738513422E8 ; 7.447220965745989E8 ; 6.398898462952709E10 ; 59475.379999999925
168 ; 4022397.853452817 ; 4.037632792462994E8 ; 7.487497116253663E8 ; 6.439273380337843E10 ; 59831.519999999924
169 ; 4015937.139337932 ; 4.0377734581764984E8 ; 7.527721094788191E8 ; 6.479649708262473E10 ; 60187.65999999992
170 ; 4010736.716123569 ; 4.037913730145478E8 ; 7.56788046618157E8 ; 6.520027442844238E10 ; 60543.79999999992
171 ; 4005458.975908607 ; 4.0379964386E8 ; 7.607987833342806E8 ; 6.560406580145693E10 ; 60899.93999999992
172 ; 3999428.105837161 ; 4.0379964386E8 ; 7.648042423101892E8 ; 6.600786544531693E10 ; 61256.07999999992
173 ; 3993649.616673466 ; 4.0379964386E8 ; 7.688036704160264E8 ; 6.641166508917693E10 ; 61612.21999999992
174 ; 3991116.0509845284 ; 4.0379964386E8 ; 7.727973200326998E8 ; 6.6815464733036934E10 ; 61968.35999999992
175 ; 3986457.672849728 ; 4.0379964386E8 ; 7.767884360836843E8 ; 6.7219264376896935E10 ; 62324.49999999992
176 ; 3981585.1646543196 ; 4.0379964386E8 ; 7.807748937565341E8 ; 6.7623064020756935E10 ; 62680.63999999992
177 ; 3977450.833967725 ; 4.0379964386E8 ; 7.847564789211885E8 ; 6.8026863664616936E10 ; 63036.77999999992
