CSV File for the Network on Day 44
1 - Minute m 
2 - Power Consumed at minute m 
3 - Power Produced at minute m 
4 - Energy Consumed since the beginning of the day 
5 - Energy Produced since the beginning of the day 
6 - Energy Lost since the beginning of the day 
 
0 ; 4534651.334719643 ; 2.1071607367061347E8 ; 0.0 ; 0.0 ; 0.0
1 ; 4538701.300866288 ; 2.1102113656106973E8 ; 4534651.334719643 ; 2.1071607367061347E8 ; 356.14
2 ; 4545260.13299262 ; 2.1194383134545612E8 ; 9073352.63558593 ; 4.217372102316832E8 ; 712.28
3 ; 4549104.378185512 ; 2.134841670546415E8 ; 1.361861276857855E7 ; 6.336810415771394E8 ; 1068.42
4 ; 4552837.743106932 ; 2.156421519769202E8 ; 1.8167717146764062E7 ; 8.471652086317809E8 ; 1424.56
5 ; 4556337.342825813 ; 2.184177935510648E8 ; 2.2720554889870994E7 ; 1.062807360608701E9 ; 1780.6999999999998
6 ; 4559596.12141081 ; 2.2181109826549846E8 ; 2.727689223269681E7 ; 1.2812251541597657E9 ; 2136.8399999999997
7 ; 4564235.694539994 ; 2.25822071566563E8 ; 3.183648835410762E7 ; 1.5030362524252641E9 ; 2492.9799999999996
8 ; 4569941.599574514 ; 2.3045071777876902E8 ; 3.640072404864761E7 ; 1.728858323991827E9 ; 2849.1199999999994
9 ; 4570779.796669334 ; 2.356970400396691E8 ; 4.0970665648222126E7 ; 1.959309041770596E9 ; 3205.2599999999993
10 ; 4575479.239370174 ; 2.4156104025160098E8 ; 4.554144544489146E7 ; 2.195006081810265E9 ; 3561.399999999999
11 ; 4576714.114771885 ; 2.4804271905201483E8 ; 5.0116924684261635E7 ; 2.436567122061866E9 ; 3917.539999999999
12 ; 4580114.396647145 ; 2.5514207580346042E8 ; 5.469363879903352E7 ; 2.6846098411138806E9 ; 4273.679999999999
13 ; 4584433.47356113 ; 2.6285910860360003E8 ; 5.927375319568067E7 ; 2.939751916917341E9 ; 4629.82
14 ; 4589176.738791068 ; 2.7119381431488127E8 ; 6.38581866692418E7 ; 3.2026110255209413E9 ; 4985.96
15 ; 4591972.253076352 ; 2.801461886127932E8 ; 6.844736340803286E7 ; 3.4738048398358226E9 ; 5342.1
16 ; 4594721.419517974 ; 2.897162260509943E8 ; 7.303933566110921E7 ; 3.753951028448616E9 ; 5698.240000000001
17 ; 4598178.681451811 ; 2.999039201410613E8 ; 7.763405708062719E7 ; 4.0436672544996104E9 ; 6054.380000000001
18 ; 4601084.568659461 ; 3.107092634442216E8 ; 8.2232235762079E7 ; 4.343571174640672E9 ; 6410.520000000001
19 ; 4604072.170769798 ; 3.221322476721809E8 ; 8.683332033073846E7 ; 4.654280438084893E9 ; 6766.660000000002
20 ; 4606634.171689874 ; 3.3417286379407024E8 ; 9.143739250150825E7 ; 4.976412685757074E9 ; 7122.800000000002
21 ; 4609493.652688095 ; 3.468311021465914E8 ; 9.604402667319812E7 ; 5.310585549551145E9 ; 7478.940000000002
22 ; 4615859.671487885 ; 3.601069525446166E8 ; 1.0065352032588622E8 ; 5.657416651697736E9 ; 7835.080000000003
23 ; 4618442.930893165 ; 3.740004043897791E8 ; 1.052693799973741E8 ; 6.0175236042423525E9 ; 8191.220000000003
24 ; 4619935.43415163 ; 3.88511446774938E8 ; 1.0988782292826727E8 ; 6.391524008632132E9 ; 8547.360000000002
25 ; 4622431.548736892 ; 4.010161503791603E8 ; 1.145077583624189E8 ; 6.780035455407069E9 ; 8903.500000000002
26 ; 4626922.704969583 ; 4.010215996329509E8 ; 1.1913018991115579E8 ; 7.181051605786229E9 ; 9259.640000000001
27 ; 4629826.284531952 ; 4.0102732185139245E8 ; 1.2375711261612538E8 ; 7.58207320541918E9 ; 9615.78
28 ; 4632073.509184764 ; 4.010333058023509E8 ; 1.2838693890065733E8 ; 7.983100527270573E9 ; 9971.92
29 ; 4633301.892000841 ; 4.0103954035871226E8 ; 1.3301901240984209E8 ; 8.384133833072924E9 ; 10328.06
30 ; 4635794.526867693 ; 4.0104601455524755E8 ; 1.3765231430184293E8 ; 8.785173373431637E9 ; 10684.199999999999
31 ; 4639780.809549383 ; 4.010527176368533E8 ; 1.4228810882871062E8 ; 9.186219387986885E9 ; 11040.339999999998
32 ; 4644385.1546837725 ; 4.0105963909859794E8 ; 1.4692788963826E8 ; 9.58727210562374E9 ; 11396.479999999998
33 ; 4646012.580842622 ; 4.0106676871812975E8 ; 1.5157227479294378E8 ; 9.988331744722338E9 ; 11752.619999999997
34 ; 4648262.763756049 ; 4.010740965810838E8 ; 1.562182873737864E8 ; 1.0389398513440468E10 ; 12108.759999999997
35 ; 4648473.423532987 ; 4.0108161310017323E8 ; 1.6086655013754243E8 ; 1.0790472610021551E10 ; 12464.899999999996
36 ; 4650163.775325758 ; 4.010893090286647E8 ; 1.6551502356107542E8 ; 1.1191554223121725E10 ; 12821.039999999995
37 ; 4652489.187831876 ; 4.0109717546892977E8 ; 1.7016518733640116E8 ; 1.159264353215039E10 ; 13177.179999999995
38 ; 4657195.941938756 ; 4.011052038767394E8 ; 1.7481767652423304E8 ; 1.199374070761932E10 ; 13533.319999999994
39 ; 4658682.153672262 ; 4.01113386061929E8 ; 1.794748724661718E8 ; 1.239484591149606E10 ; 13889.459999999994
40 ; 4660870.678351492 ; 4.011217141860134E8 ; 1.8413355461984405E8 ; 1.279595929755799E10 ; 14245.599999999993
41 ; 4662623.9869988235 ; 4.011301807572808E8 ; 1.8879442529819554E8 ; 1.3197081011744003E10 ; 14601.739999999993
42 ; 4665307.6052498575 ; 4.011387786238386E8 ; 1.9345704928519437E8 ; 1.3598211192501284E10 ; 14957.879999999992
43 ; 4664143.082192532 ; 4.0114750096503156E8 ; 1.9812235689044422E8 ; 1.3999349971125122E10 ; 15314.019999999991
44 ; 4668220.9555404885 ; 4.011563412815995E8 ; 2.0278649997263676E8 ; 1.4400497472090153E10 ; 15670.15999999999
45 ; 4668185.170501136 ; 4.011652933848936E8 ; 2.0745472092817724E8 ; 1.4801653813371752E10 ; 16026.29999999999
46 ; 4670165.888728415 ; 4.0117435138542324E8 ; 2.1212290609867838E8 ; 1.5202819106756645E10 ; 16382.43999999999
47 ; 4671419.377354814 ; 4.0118350968096614E8 ; 2.167930719874068E8 ; 1.5603993458142069E10 ; 16738.57999999999
48 ; 4673761.06166677 ; 4.0119276294443446E8 ; 2.214644913647616E8 ; 1.6005176967823034E10 ; 17094.71999999999
49 ; 4675492.281308891 ; 4.012021061116588E8 ; 2.2613825242642835E8 ; 1.640636973076747E10 ; 17450.85999999999
50 ; 4675508.1725129215 ; 4.0121153436922085E8 ; 2.3081374470773724E8 ; 1.6807571836879128E10 ; 17806.99999999999
51 ; 4677139.836255362 ; 4.012210431424421E8 ; 2.3548925288025016E8 ; 1.720878337124835E10 ; 18163.13999999999
52 ; 4677960.318894417 ; 4.012306280836116E8 ; 2.4016639271650553E8 ; 1.761000441439079E10 ; 18519.279999999988
53 ; 4677713.031049392 ; 4.012402850605197E8 ; 2.4484435303539994E8 ; 1.80112350424744E10 ; 18875.419999999987
54 ; 4679374.411141689 ; 4.012500101453464E8 ; 2.4952206606644934E8 ; 1.841247532753492E10 ; 19231.559999999987
55 ; 4679402.0661318265 ; 4.0125979960394156E8 ; 2.5420144047759104E8 ; 1.8813725337680267E10 ; 19587.699999999986
56 ; 4677287.9854969345 ; 4.012696498855202E8 ; 2.5888084254372287E8 ; 1.921498513728421E10 ; 19943.839999999986
57 ; 4680525.234459317 ; 4.012795576127913E8 ; 2.635581305292198E8 ; 1.961625478716973E10 ; 20299.979999999985
58 ; 4682842.16445073 ; 4.012895195725257E8 ; 2.6823865576367912E8 ; 2.0017534344782524E10 ; 20656.119999999984
59 ; 4684226.171905188 ; 4.0129953270656633E8 ; 2.7292149792812985E8 ; 2.041882386435505E10 ; 21012.259999999984
60 ; 4683862.751770556 ; 4.0130959410327804E8 ; 2.77605724100035E8 ; 2.0820123397061615E10 ; 21368.399999999983
61 ; 4686806.309780671 ; 4.0131970098942924E8 ; 2.8228958685180557E8 ; 2.1221432991164894E10 ; 21724.539999999983
62 ; 4686761.74936379 ; 4.013298507224957E8 ; 2.869763931615862E8 ; 2.1622752692154324E10 ; 22080.679999999982
63 ; 4686538.762845185 ; 4.013400407833751E8 ; 2.9166315491095E8 ; 2.202408254287682E10 ; 22436.81999999998
64 ; 4688834.273156797 ; 4.0135026876949686E8 ; 2.9634969367379516E8 ; 2.2425422583660194E10 ; 22792.95999999998
65 ; 4687084.848918114 ; 4.013605323883138E8 ; 3.01038527946952E8 ; 2.282677285242969E10 ; 23149.09999999998
66 ; 4690625.112928828 ; 4.0137082945115805E8 ; 3.057256127958701E8 ; 2.3228133384818005E10 ; 23505.23999999998
67 ; 4688848.313133156 ; 4.013811578674463E8 ; 3.1041623790879893E8 ; 2.362950421426916E10 ; 23861.37999999998
68 ; 4690703.344810543 ; 4.0139151563921714E8 ; 3.151050862219321E8 ; 2.403088537213661E10 ; 24217.51999999998
69 ; 4690363.734778338 ; 4.0140190085598373E8 ; 3.1979578956674266E8 ; 2.4432276887775826E10 ; 24573.659999999978
70 ; 4690607.036549454 ; 4.014123116898861E8 ; 3.24486153301521E8 ; 2.483367878863181E10 ; 24929.799999999977
71 ; 4690890.263229214 ; 4.014227463911273E8 ; 3.2917676033807045E8 ; 2.5235091100321693E10 ; 25285.939999999977
72 ; 4691345.249409381 ; 4.01433203283677E8 ; 3.3386765060129964E8 ; 2.5636513846712822E10 ; 25642.079999999976
73 ; 4692497.675758569 ; 4.014436807612283E8 ; 3.38558995850709E8 ; 2.60379470499965E10 ; 25998.219999999976
74 ; 4691129.895734513 ; 4.014541772833934E8 ; 3.4325149352646756E8 ; 2.6439390730757725E10 ; 26354.359999999975
75 ; 4691949.048934621 ; 4.0146469137212354E8 ; 3.4794262342220205E8 ; 2.684084490804112E10 ; 26710.499999999975
76 ; 4690377.669547901 ; 4.014752216083412E8 ; 3.526345724711367E8 ; 2.7242309599413242E10 ; 27066.639999999974
77 ; 4690371.215540079 ; 4.014857666287713E8 ; 3.573249501406846E8 ; 2.7643784821021584E10 ; 27422.779999999973
78 ; 4689764.959714111 ; 4.01496325122959E8 ; 3.6201532135622466E8 ; 2.8045270587650356E10 ; 27778.919999999973
79 ; 4688983.080943822 ; 4.0150689583046407E8 ; 3.667050863159388E8 ; 2.8446766912773315E10 ; 28135.059999999972
80 ; 4689242.797126675 ; 4.015174775382206E8 ; 3.713940693968826E8 ; 2.884827380860378E10 ; 28491.19999999997
81 ; 4690517.68922475 ; 4.015280690780511E8 ; 3.7608331219400924E8 ; 2.9249791286142E10 ; 28847.33999999997
82 ; 4688657.593222265 ; 4.015386693243271E8 ; 3.80773829883234E8 ; 2.965131935522005E10 ; 29203.47999999997
83 ; 4688801.401637798 ; 4.0154927719176626E8 ; 3.854624874764563E8 ; 3.0052858024544376E10 ; 29559.61999999997
84 ; 4690925.048794821 ; 4.015598916333574E8 ; 3.901512888780941E8 ; 3.045440730173614E10 ; 29915.75999999997
85 ; 4690834.105281848 ; 4.015705116384065E8 ; 3.948422139268889E8 ; 3.08559671933695E10 ; 30271.89999999997
86 ; 4690162.884006772 ; 4.015811362306956E8 ; 3.995330480321707E8 ; 3.1257537705007904E10 ; 30628.039999999968
87 ; 4688074.769074507 ; 4.015917644667473E8 ; 4.042232109161775E8 ; 3.1659118841238598E10 ; 30984.179999999968
88 ; 4689271.563283083 ; 4.016023954341894E8 ; 4.08911285685252E8 ; 3.2060710605705345E10 ; 31340.319999999967
89 ; 4689272.989460349 ; 4.0161302825021267E8 ; 4.136005572485351E8 ; 3.2462313001139534E10 ; 31696.459999999966
90 ; 4686818.790928241 ; 4.0162366206011593E8 ; 4.1828983023799545E8 ; 3.2863926029389748E10 ; 32052.599999999966
91 ; 4687896.635002941 ; 4.01634296035934E8 ; 4.229766490289237E8 ; 3.3265549691449863E10 ; 32408.739999999965
92 ; 4689222.270858359 ; 4.0164492937514216E8 ; 4.276645456639266E8 ; 3.3667183987485798E10 ; 32764.879999999965
93 ; 4687012.622521055 ; 4.016555612994342E8 ; 4.3235376793478495E8 ; 3.406882891686094E10 ; 33121.01999999997
94 ; 4685871.852575633 ; 4.01666191053567E8 ; 4.37040780557306E8 ; 3.447048447816037E10 ; 33477.15999999997
95 ; 4682978.400321764 ; 4.016768179042709E8 ; 4.4172665240988165E8 ; 3.4872150669213936E10 ; 33833.29999999997
96 ; 4683466.269666352 ; 4.0168744113921845E8 ; 4.4640963081020343E8 ; 3.527382748711821E10 ; 34189.439999999966
97 ; 4683066.770316508 ; 4.0169806006605095E8 ; 4.510930970798698E8 ; 3.567551492825743E10 ; 34545.579999999965
98 ; 4684039.366356237 ; 4.017086740114573E8 ; 4.557761638501863E8 ; 3.607721298832348E10 ; 34901.719999999965
99 ; 4682299.883152046 ; 4.0171928232030296E8 ; 4.6046020321654254E8 ; 3.647892166233494E10 ; 35257.859999999964
100 ; 4680641.829657572 ; 4.0172988435480595E8 ; 4.651425030996946E8 ; 3.688064094465524E10 ; 35613.99999999996
101 ; 4677630.733752002 ; 4.017404794937569E8 ; 4.6982314492935216E8 ; 3.728237082901005E10 ; 35970.13999999996
102 ; 4678048.529099624 ; 4.017510671317807E8 ; 4.745007756631042E8 ; 3.768411130850381E10 ; 36326.27999999996
103 ; 4676017.679398055 ; 4.0176164667863715E8 ; 4.791788241922038E8 ; 3.808586237563559E10 ; 36682.41999999996
104 ; 4678187.747334624 ; 4.0177221755855834E8 ; 4.838548418716019E8 ; 3.8487624022314224E10 ; 37038.55999999996
105 ; 4674585.131794439 ; 4.017827792096212E8 ; 4.885330296189365E8 ; 3.888939623987278E10 ; 37394.69999999996
106 ; 4673578.428361885 ; 4.0179333108315206E8 ; 4.9320761475073093E8 ; 3.92911790190824E10 ; 37750.83999999996
107 ; 4672148.03503593 ; 4.0180387264316213E8 ; 4.978811931790928E8 ; 3.969297235016555E10 ; 38106.97999999996
108 ; 4671251.127273533 ; 4.0181440336581254E8 ; 5.0255334121412873E8 ; 4.0094776222808716E10 ; 38463.11999999996
109 ; 4668968.192703407 ; 4.0182492273890615E8 ; 5.072245923414023E8 ; 4.049659062617453E10 ; 38819.25999999996
110 ; 4667219.983492351 ; 4.018354302614052E8 ; 5.118935605341057E8 ; 4.089841554891344E10 ; 39175.39999999996
111 ; 4668768.7469179975 ; 4.018459254429736E8 ; 5.165607805175981E8 ; 4.130025097917484E10 ; 39531.53999999996
112 ; 4666892.584740257 ; 4.0185640780354214E8 ; 5.212295492645161E8 ; 4.170209690461781E10 ; 39887.67999999996
113 ; 4664126.542323052 ; 4.018668768728951E8 ; 5.258964418492564E8 ; 4.210395331242136E10 ; 40243.819999999956
114 ; 4662643.046541049 ; 4.018773321902776E8 ; 5.3056056839157945E8 ; 4.250582018929425E10 ; 40599.959999999955
115 ; 4662379.071328997 ; 4.0188777330402243E8 ; 5.352232114381205E8 ; 4.290769752148453E10 ; 40956.099999999955
116 ; 4660052.30567975 ; 4.0189819977119493E8 ; 5.398855905094495E8 ; 4.330958529478855E10 ; 41312.239999999954
117 ; 4658711.410946225 ; 4.019086111572553E8 ; 5.445456428151293E8 ; 4.3711483494559746E10 ; 41668.379999999954
118 ; 4656344.993631983 ; 4.0191900703573704E8 ; 5.492043542260755E8 ; 4.4113392105717E10 ; 42024.51999999995
119 ; 4652919.450458707 ; 4.019293869879414E8 ; 5.538606992197075E8 ; 4.451531111275274E10 ; 42380.65999999995
120 ; 4652977.853636263 ; 4.0193975060264564E8 ; 5.585136186701663E8 ; 4.491724049974068E10 ; 42736.79999999995
121 ; 4651202.86027639 ; 4.0195009747582614E8 ; 5.631665965238025E8 ; 4.531918025034332E10 ; 43092.93999999995
122 ; 4650819.28722304 ; 4.0196042721039397E8 ; 5.678177993840789E8 ; 4.5721130347819145E10 ; 43449.07999999995
123 ; 4647497.890743569 ; 4.019707394159428E8 ; 5.724686186713018E8 ; 4.612309077502954E10 ; 43805.21999999995
124 ; 4644912.513187598 ; 4.01981033708509E8 ; 5.771161165620455E8 ; 4.652506151444548E10 ; 44161.35999999995
125 ; 4642123.103668462 ; 4.019913097103432E8 ; 5.817610290752331E8 ; 4.692704254815399E10 ; 44517.49999999995
126 ; 4639388.666153816 ; 4.020015670496911E8 ; 5.864031521789016E8 ; 4.7329033857864334E10 ; 44873.63999999995
127 ; 4635371.8099135645 ; 4.0201180536058605E8 ; 5.910425408450553E8 ; 4.7731035424914024E10 ; 45229.77999999995
128 ; 4632060.28566359 ; 4.0202202428264976E8 ; 5.956779126549689E8 ; 4.813304723027461E10 ; 45585.91999999995
129 ; 4629248.749352741 ; 4.020322234609028E8 ; 6.003099729406325E8 ; 4.853506925455726E10 ; 45942.05999999995
130 ; 4627241.303847379 ; 4.020424025455838E8 ; 6.049392216899852E8 ; 4.893710147801816E10 ; 46298.199999999946
131 ; 4623288.134183014 ; 4.020525611919757E8 ; 6.095664629938326E8 ; 4.933914388056374E10 ; 46654.339999999946
132 ; 4621283.71065881 ; 4.0206269906024134E8 ; 6.141897511280156E8 ; 4.974119644175572E10 ; 47010.479999999945
133 ; 4619354.416422197 ; 4.0207281581526506E8 ; 6.188110348386744E8 ; 5.014325914081596E10 ; 47366.619999999944
134 ; 4615463.235198491 ; 4.0208291112650204E8 ; 6.234303892550967E8 ; 5.0545331956631226E10 ; 47722.759999999944
135 ; 4616032.878083331 ; 4.0209298466783416E8 ; 6.280458524902952E8 ; 5.094741486775773E10 ; 48078.89999999994
136 ; 4613424.506867394 ; 4.0210303611743164E8 ; 6.326618853683785E8 ; 5.134950785242556E10 ; 48435.03999999994
137 ; 4611635.32368649 ; 4.021130651576216E8 ; 6.372753098752459E8 ; 5.175161088854299E10 ; 48791.17999999994
138 ; 4608416.471782351 ; 4.021230714747617E8 ; 6.418869451989324E8 ; 5.2153723953700615E10 ; 49147.31999999994
139 ; 4604291.679475871 ; 4.021330547591194E8 ; 6.464953616707147E8 ; 5.255584702517538E10 ; 49503.45999999994
140 ; 4600571.076538268 ; 4.021430147047564E8 ; 6.510996533501906E8 ; 5.2957980079934494E10 ; 49859.59999999994
141 ; 4598587.3406618135 ; 4.021529510094178E8 ; 6.55700224426729E8 ; 5.336012309463925E10 ; 50215.73999999994
142 ; 4595729.768622642 ; 4.021628633744266E8 ; 6.602988117673907E8 ; 5.376227604564867E10 ; 50571.87999999994
143 ; 4592025.829624496 ; 4.0217275150458205E8 ; 6.648945415360134E8 ; 5.4164438909023094E10 ; 50928.01999999994
144 ; 4587909.495307285 ; 4.021826151080624E8 ; 6.694865673656379E8 ; 5.456661166052768E10 ; 51284.15999999994
145 ; 4588245.669846269 ; 4.0219245389633197E8 ; 6.740744768609452E8 ; 5.496879427563574E10 ; 51640.29999999994
146 ; 4585326.931726566 ; 4.022022675840517E8 ; 6.786627225307915E8 ; 5.5370986729532074E10 ; 51996.43999999994
147 ; 4585153.213245814 ; 4.0221205588899404E8 ; 6.832480494625181E8 ; 5.577318899711613E10 ; 52352.579999999936
148 ; 4583502.199804278 ; 4.022218185319605E8 ; 6.87833202675764E8 ; 5.617540105300512E10 ; 52708.719999999936
149 ; 4582031.380425055 ; 4.022315552367035E8 ; 6.924167048755683E8 ; 5.657762287153708E10 ; 53064.859999999935
150 ; 4582103.63165227 ; 4.0224126572985065E8 ; 6.969987362559934E8 ; 5.697985442677378E10 ; 53420.999999999935
151 ; 4579394.972919241 ; 4.022509497408328E8 ; 7.015808398876456E8 ; 5.738209569250363E10 ; 53777.139999999934
152 ; 4578547.613357164 ; 4.022606070018141E8 ; 7.061602348605648E8 ; 5.778434664224446E10 ; 54133.27999999993
153 ; 4576703.383649367 ; 4.0227023724762636E8 ; 7.10738782473922E8 ; 5.818660724924628E10 ; 54489.41999999993
154 ; 4576691.604636206 ; 4.022798402157042E8 ; 7.153154858575714E8 ; 5.8588877486493904E10 ; 54845.55999999993
155 ; 4575646.597614316 ; 4.022894156460244E8 ; 7.198921774622076E8 ; 5.899115732670961E10 ; 55201.69999999993
156 ; 4573396.579251199 ; 4.0229896328104687E8 ; 7.244678240598218E8 ; 5.939344674235564E10 ; 55557.83999999993
157 ; 4574054.539095679 ; 4.023084828656579E8 ; 7.29041220639073E8 ; 5.979574570563668E10 ; 55913.97999999993
158 ; 4571708.12103477 ; 4.023179741471164E8 ; 7.336152751781687E8 ; 6.019805418850234E10 ; 56270.11999999993
159 ; 4570201.468084893 ; 4.0232743687500143E8 ; 7.381869832992034E8 ; 6.060037216264946E10 ; 56626.25999999993
160 ; 4567958.340766423 ; 4.02336870801162E8 ; 7.427571847672883E8 ; 6.100269959952446E10 ; 56982.39999999993
161 ; 4568823.091307717 ; 4.0234627567966926E8 ; 7.473251431080548E8 ; 6.140503647032562E10 ; 57338.53999999993
162 ; 4565285.639881581 ; 4.0235565126677036E8 ; 7.518939661993625E8 ; 6.1807382746005295E10 ; 57694.67999999993
163 ; 4562902.012355902 ; 4.023649973208436E8 ; 7.564592518392441E8 ; 6.2209738397272064E10 ; 58050.81999999993
164 ; 4561069.113135567 ; 4.023743136023563E8 ; 7.610221538516E8 ; 6.261210339459291E10 ; 58406.95999999993
165 ; 4560550.696896274 ; 4.0238359987382317E8 ; 7.655832229647356E8 ; 6.301447770819527E10 ; 58763.099999999926
166 ; 4557299.115731729 ; 4.023928558997674E8 ; 7.70143773661632E8 ; 6.341686130806909E10 ; 59119.239999999925
167 ; 4557572.6621628385 ; 4.0240208144668245E8 ; 7.747010727773637E8 ; 6.381925416396886E10 ; 59475.379999999925
168 ; 4555897.4839321 ; 4.024112762829955E8 ; 7.792586454395264E8 ; 6.422165624541554E10 ; 59831.519999999924
169 ; 4552946.371312573 ; 4.024204401790328E8 ; 7.838145429234586E8 ; 6.462406752169854E10 ; 60187.65999999992
170 ; 4552429.021929812 ; 4.024295729069852E8 ; 7.883674892947712E8 ; 6.502648796187757E10 ; 60543.79999999992
171 ; 4550053.899810481 ; 4.024386742408766E8 ; 7.92919918316701E8 ; 6.542891753478455E10 ; 60899.93999999992
172 ; 4549054.727032262 ; 4.02447743956532E8 ; 7.974699722165115E8 ; 6.583135620902543E10 ; 61256.07999999992
173 ; 4546186.00265008 ; 4.024567818315479E8 ; 8.020190269435438E8 ; 6.6233803952981964E10 ; 61612.21999999992
174 ; 4550129.491269522 ; 4.024657876452631E8 ; 8.065652129461938E8 ; 6.6636260734813515E10 ; 61968.35999999992
175 ; 4548135.475362783 ; 4.024747611787311E8 ; 8.111153424374633E8 ; 6.703872652245878E10 ; 62324.49999999992
176 ; 4548039.850550607 ; 4.024837022146933E8 ; 8.156634779128261E8 ; 6.744120128363751E10 ; 62680.63999999992
177 ; 4548258.0790629545 ; 4.024926105375534E8 ; 8.202115177633767E8 ; 6.78436849858522E10 ; 63036.77999999992
