CSV File for the Network on Day 111
1 - Minute m 
2 - Power Consumed at minute m 
3 - Power Produced at minute m 
4 - Energy Consumed since the beginning of the day 
5 - Energy Produced since the beginning of the day 
6 - Energy Lost since the beginning of the day 
 
0 ; 4586112.624914064 ; 2.111156984801008E8 ; 0.0 ; 0.0 ; 0.0
1 ; 4591179.222766705 ; 2.1142161168558657E8 ; 4586112.624914064 ; 2.111156984801008E8 ; 356.14
2 ; 4594566.21467611 ; 2.123450875120201E8 ; 9177291.84768077 ; 4.225373101656874E8 ; 712.28
3 ; 4599073.517927159 ; 2.1388612875271112E8 ; 1.377185806235688E7 ; 6.348823976777074E8 ; 1068.42
4 ; 4603577.17600773 ; 2.160447379087097E8 ; 1.8370931580284037E7 ; 8.487685264304185E8 ; 1424.56
5 ; 4609643.246337724 ; 2.1882091717571288E8 ; 2.2974508756291766E7 ; 1.0648132643391283E9 ; 1780.6999999999998
6 ; 4615111.483291701 ; 2.2221466843236268E8 ; 2.758415200262949E7 ; 1.283634181514841E9 ; 2136.8399999999997
7 ; 4617322.39617456 ; 2.2622599323007995E8 ; 3.219926348592119E7 ; 1.5058488499472036E9 ; 2492.9799999999996
8 ; 4621866.963423051 ; 2.3085489278456092E8 ; 3.681658588209575E7 ; 1.7320748431772835E9 ; 2849.1199999999994
9 ; 4627485.91379477 ; 2.361013679690454E8 ; 4.14384528455188E7 ; 1.9629297359618444E9 ; 3205.2599999999993
10 ; 4628266.3549273405 ; 2.419654193094445E8 ; 4.606593875931357E7 ; 2.19903110393089E9 ; 3561.399999999999
11 ; 4631334.53014081 ; 2.4844704698139113E8 ; 5.069420511424091E7 ; 2.4409965232403345E9 ; 3917.539999999999
12 ; 4635260.955013407 ; 2.5554625080925232E8 ; 5.532553964438172E7 ; 2.6894435702217255E9 ; 4273.679999999999
13 ; 4638078.663338149 ; 2.6326303026711693E8 ; 5.9960800599395126E7 ; 2.9449898210309777E9 ; 4629.82
14 ; 4642659.435942903 ; 2.715973844817454E8 ; 6.459887926273327E7 ; 3.2082528512980947E9 ; 4985.96
15 ; 4647550.527831458 ; 2.8054931223744124E8 ; 6.924153869867617E7 ; 3.47985023577984E9 ; 5342.1
16 ; 4650878.574403095 ; 2.901188119827838E8 ; 7.388908922650763E7 ; 3.760399548017281E9 ; 5698.240000000001
17 ; 4653154.019480214 ; 3.003058818391309E8 ; 7.853996780091073E7 ; 4.050518360000065E9 ; 6054.380000000001
18 ; 4655599.0960912695 ; 3.1111051961078554E8 ; 8.319312182039094E7 ; 4.350824241839195E9 ; 6410.520000000001
19 ; 4657502.602785465 ; 3.225327227966977E8 ; 8.784872091648221E7 ; 4.661934761449981E9 ; 6766.660000000002
20 ; 4661686.736480562 ; 3.345724886035575E8 ; 9.250622351926768E7 ; 4.984467484246678E9 ; 7122.800000000002
21 ; 4666092.542609722 ; 3.4722981396012384E8 ; 9.716791025574824E7 ; 5.319039972850236E9 ; 7478.940000000002
22 ; 4669246.23436451 ; 3.6050469553262013E8 ; 1.0183400279835796E8 ; 5.66626978681036E9 ; 7835.080000000003
23 ; 4672304.9915907895 ; 3.743971297410268E8 ; 1.0650324903272247E8 ; 6.02677448234298E9 ; 8191.220000000003
24 ; 4677511.22011254 ; 3.889071127760919E8 ; 1.1117555402431326E8 ; 6.401171612084007E9 ; 8547.360000000002
25 ; 4679189.681345849 ; 4.014107224132526E8 ; 1.158530652444258E8 ; 6.790078724860099E9 ; 8903.500000000002
26 ; 4682487.689192173 ; 4.0141505010435116E8 ; 1.2053225492577165E8 ; 7.191489447273352E9 ; 9259.640000000001
27 ; 4686929.931566461 ; 4.014196300455695E8 ; 1.2521474261496383E8 ; 7.592904497377703E9 ; 9615.78
28 ; 4689937.936930712 ; 4.01424457689144E8 ; 1.2990167254653029E8 ; 7.994324127423272E9 ; 9971.92
29 ; 4693285.054674125 ; 4.014295283479222E8 ; 1.34591610483461E8 ; 8.395748585112416E9 ; 10328.06
30 ; 4695126.070596937 ; 4.014348372131839E8 ; 1.392848955381351E8 ; 8.797178113460339E9 ; 10684.199999999999
31 ; 4698998.7746990835 ; 4.01440379372095E8 ; 1.4398002160873204E8 ; 9.198612950673523E9 ; 11040.339999999998
32 ; 4702922.389415914 ; 4.014461498246819E8 ; 1.4867902038343114E8 ; 9.600053330045618E9 ; 11396.479999999998
33 ; 4704406.688318005 ; 4.014521435002288E8 ; 1.5338194277284706E8 ; 1.00014994798703E10 ; 11752.619999999997
34 ; 4709199.66932852 ; 4.0145835527301705E8 ; 1.5808634946116507E8 ; 1.040295162337053E10 ; 12108.759999999997
35 ; 4711801.87925362 ; 4.014647799773359E8 ; 1.6279554913049358E8 ; 1.0804409978643547E10 ; 12464.899999999996
36 ; 4712823.939616063 ; 4.014714124217123E8 ; 1.675073510097472E8 ; 1.1205874758620882E10 ; 12821.039999999995
37 ; 4715230.19102307 ; 4.014782474023168E8 ; 1.7222017494936326E8 ; 1.1607346171042595E10 ; 13177.179999999995
38 ; 4719014.380697586 ; 4.0148527971551716E8 ; 1.7693540514038634E8 ; 1.2008824418444912E10 ; 13533.319999999994
39 ; 4724212.795455093 ; 4.0149250416956186E8 ; 1.8165441952108392E8 ; 1.2410309698160429E10 ; 13889.459999999994
40 ; 4723486.873039996 ; 4.0149991559538656E8 ; 1.8637863231653902E8 ; 1.281180220232999E10 ; 14245.599999999993
41 ; 4725070.401806419 ; 4.015075088565458E8 ; 1.91102119189579E8 ; 1.3213302117925377E10 ; 14601.739999999993
42 ; 4725975.086604564 ; 4.0151527885828066E8 ; 1.9582718959138542E8 ; 1.3614809626781923E10 ; 14957.879999999992
43 ; 4727926.665197603 ; 4.015232205557389E8 ; 2.0055316467799E8 ; 1.4016324905640203E10 ; 15314.019999999991
44 ; 4728519.257680021 ; 4.015313289613734E8 ; 2.052810913431876E8 ; 1.4417848126195942E10 ; 15670.15999999999
45 ; 4734063.599531466 ; 4.0153959915154576E8 ; 2.1000961060086763E8 ; 1.4819379455157316E10 ; 16026.29999999999
46 ; 4735517.898254149 ; 4.015480262723691E8 ; 2.147436742003991E8 ; 1.5220919054308863E10 ; 16382.43999999999
47 ; 4738419.045577329 ; 4.0155660554482543E8 ; 2.1947919209865326E8 ; 1.5622467080581232E10 ; 16738.57999999999
48 ; 4738833.534644409 ; 4.015653322691966E8 ; 2.2421761114423057E8 ; 1.6024023686126057E10 ; 17094.71999999999
49 ; 4741617.221395327 ; 4.0157420182884884E8 ; 2.2895644467887497E8 ; 1.6425589018395254E10 ; 17450.85999999999
50 ; 4742229.6909018485 ; 4.015832096934102E8 ; 2.3369806190027028E8 ; 1.6827163220224102E10 ; 17806.99999999999
51 ; 4741544.343763809 ; 4.0159235142138505E8 ; 2.3844029159117213E8 ; 1.722874642991751E10 ; 18163.13999999999
52 ; 4745550.534326579 ; 4.0160162266224396E8 ; 2.4318183593493593E8 ; 1.7630338781338898E10 ; 18519.279999999988
53 ; 4744813.404762937 ; 4.016110191580309E8 ; 2.479273864692625E8 ; 1.803194040400114E10 ; 18875.419999999987
54 ; 4748589.817069432 ; 4.016205367445276E8 ; 2.5267219987402543E8 ; 1.8433551423159172E10 ; 19231.559999999987
55 ; 4748878.6381162135 ; 4.0163017135201156E8 ; 2.5742078969109488E8 ; 1.8835171959903698E10 ; 19587.699999999986
56 ; 4749647.431505408 ; 4.016399190056474E8 ; 2.621696683292111E8 ; 1.923680213125571E10 ; 19943.839999999986
57 ; 4749660.954064449 ; 4.016497758255444E8 ; 2.669193157607165E8 ; 1.9638442050261356E10 ; 20299.979999999985
58 ; 4754565.605198978 ; 4.0165973802651453E8 ; 2.716689767147809E8 ; 2.0040091826086903E10 ; 20656.119999999984
59 ; 4752720.645498986 ; 4.016698019175629E8 ; 2.764235423199799E8 ; 2.044175156411342E10 ; 21012.259999999984
60 ; 4755816.310077023 ; 4.0167996390114063E8 ; 2.811762629654789E8 ; 2.0843421366030983E10 ; 21368.399999999983
61 ; 4757985.966113883 ; 4.016902204721864E8 ; 2.859320792755559E8 ; 2.1245101329932125E10 ; 21724.539999999983
62 ; 4759027.496146499 ; 4.0170056821698445E8 ; 2.906900652416698E8 ; 2.1646791550404312E10 ; 22080.679999999982
63 ; 4759810.792342599 ; 4.0171100381186205E8 ; 2.954490927378163E8 ; 2.2048492118621296E10 ; 22436.81999999998
64 ; 4760064.453092099 ; 4.017215240217485E8 ; 3.002089035301589E8 ; 2.245020312243316E10 ; 22792.95999999998
65 ; 4761521.382850464 ; 4.017321256986168E8 ; 3.04968967983251E8 ; 2.2851924646454906E10 ; 23149.09999999998
66 ; 4764156.404653666 ; 4.017428057798259E8 ; 3.0973048936610144E8 ; 2.3253656772153522E10 ; 23505.23999999998
67 ; 4764701.144079075 ; 4.017535612863812E8 ; 3.144946457707551E8 ; 2.365539957793335E10 ; 23861.37999999998
68 ; 4766313.333532259 ; 4.01764389321128E8 ; 3.192593469148342E8 ; 2.405715313921973E10 ; 24217.51999999998
69 ; 4767786.392685228 ; 4.017752870668935E8 ; 3.240256602483665E8 ; 2.445891752854086E10 ; 24573.659999999978
70 ; 4764585.332404309 ; 4.0178625178458756E8 ; 3.287934466410517E8 ; 2.4860692815607754E10 ; 24929.799999999977
71 ; 4768887.300285976 ; 4.0179728081127644E8 ; 3.33558031973456E8 ; 2.526247906739234E10 ; 25285.939999999977
72 ; 4770191.939472057 ; 4.0180837155823743E8 ; 3.38326919273742E8 ; 2.5664276348203617E10 ; 25642.079999999976
73 ; 4769472.940240998 ; 4.018195215090047E8 ; 3.430971112132141E8 ; 2.6066084719761856E10 ; 25998.219999999976
74 ; 4770202.824203587 ; 4.018307282174142E8 ; 3.478665841534551E8 ; 2.6467904241270863E10 ; 26354.359999999975
75 ; 4769502.699277437 ; 4.0184198930565405E8 ; 3.526367869776587E8 ; 2.6869734969488277E10 ; 26710.499999999975
76 ; 4769187.047349344 ; 4.0185330246232784E8 ; 3.5740628967693615E8 ; 2.727157695879393E10 ; 27066.639999999974
77 ; 4772222.192369631 ; 4.0186466544053566E8 ; 3.621754767242855E8 ; 2.7673430261256256E10 ; 27422.779999999973
78 ; 4769711.405304541 ; 4.01876076055977E8 ; 3.669476989166551E8 ; 2.8075294926696793E10 ; 27778.919999999973
79 ; 4771820.297143472 ; 4.018875321850808E8 ; 3.717174103219597E8 ; 2.847717100275277E10 ; 28135.059999999972
80 ; 4772548.606822826 ; 4.018990317631656E8 ; 3.7648923061910313E8 ; 2.887905853493785E10 ; 28491.19999999997
81 ; 4774034.529112314 ; 4.01910572782632E8 ; 3.81261779225926E8 ; 2.9280957566701015E10 ; 28847.33999999997
82 ; 4773800.914147803 ; 4.01922153291191E8 ; 3.860358137550383E8 ; 2.9682868139483646E10 ; 29203.47999999997
83 ; 4774831.578085569 ; 4.019337713901299E8 ; 3.908096146691861E8 ; 3.0084790292774837E10 ; 29559.61999999997
84 ; 4774778.587999467 ; 4.0194542523261696E8 ; 3.9558444624727166E8 ; 3.0486724064164967E10 ; 29915.75999999997
85 ; 4777282.6580370935 ; 4.019571130220461E8 ; 4.003592248352711E8 ; 3.0888669489397583E10 ; 30271.89999999997
86 ; 4775283.266687438 ; 4.0196883301042354E8 ; 4.051365074933082E8 ; 3.129062660241963E10 ; 30628.039999999968
87 ; 4777759.025216265 ; 4.019805834967955E8 ; 4.0991179075999564E8 ; 3.169259543543005E10 ; 30984.179999999968
88 ; 4777500.144991669 ; 4.019923628257189E8 ; 4.146895497852119E8 ; 3.2094576018926846E10 ; 31340.319999999967
89 ; 4778335.15344071 ; 4.0200416938577425E8 ; 4.194670499302036E8 ; 3.2496568381752563E10 ; 31696.459999999966
90 ; 4779036.188139836 ; 4.0201600160812104E8 ; 4.2424538508364433E8 ; 3.2898572551138336E10 ; 32052.599999999966
91 ; 4777754.0648985235 ; 4.0202785796509576E8 ; 4.290244212717842E8 ; 3.3300588552746456E10 ; 32408.739999999965
92 ; 4777781.091844305 ; 4.020397369688517E8 ; 4.3380217533668274E8 ; 3.370261641071155E10 ; 32764.879999999965
93 ; 4778539.374683619 ; 4.020516371700405E8 ; 4.3857995642852706E8 ; 3.4104656147680405E10 ; 33121.01999999997
94 ; 4776341.663473533 ; 4.0206355715653515E8 ; 4.433584958032107E8 ; 3.450670778485045E10 ; 33477.15999999997
95 ; 4777160.856926238 ; 4.020754955521931E8 ; 4.481348374666842E8 ; 3.490877134200698E10 ; 33833.29999999997
96 ; 4777273.564722427 ; 4.020874510156591E8 ; 4.529119983236105E8 ; 3.531084683755917E10 ; 34189.439999999966
97 ; 4778666.578922795 ; 4.020994222392075E8 ; 4.576892718883329E8 ; 3.571293428857483E10 ; 34545.579999999965
98 ; 4776594.340180465 ; 4.021114079476227E8 ; 4.624679384672557E8 ; 3.611503371081403E10 ; 34901.719999999965
99 ; 4776572.986667721 ; 4.0212340689711666E8 ; 4.6724453280743617E8 ; 3.651714511876166E10 ; 35257.859999999964
100 ; 4778197.341372157 ; 4.0213541787428296E8 ; 4.7202110579410386E8 ; 3.6919268525658775E10 ; 35613.99999999996
101 ; 4776879.685486074 ; 4.021474396950871E8 ; 4.76799303135476E8 ; 3.732140394353306E10 ; 35970.13999999996
102 ; 4776595.454253357 ; 4.021594712038902E8 ; 4.815761828209621E8 ; 3.772355138322814E10 ; 36326.27999999996
103 ; 4776903.004784838 ; 4.0217151127250767E8 ; 4.8635277827521545E8 ; 3.812571085443203E10 ; 36682.41999999996
104 ; 4777187.498965401 ; 4.021835587992997E8 ; 4.9112968128000027E8 ; 3.852788236570454E10 ; 37038.55999999996
105 ; 4776901.31194476 ; 4.0219561270829403E8 ; 4.9590686877896565E8 ; 3.893006592450384E10 ; 37394.69999999996
106 ; 4774991.243888315 ; 4.022076719483392E8 ; 5.0068377009091043E8 ; 3.9332261537212135E10 ; 37750.83999999996
107 ; 4775643.49177014 ; 4.02219735492288E8 ; 5.0545876133479875E8 ; 3.973446920916048E10 ; 38106.97999999996
108 ; 4774409.309736821 ; 4.022318023362098E8 ; 5.102344048265689E8 ; 4.013668894465276E10 ; 38463.11999999996
109 ; 4773063.647793574 ; 4.022438714986305E8 ; 5.1500881413630575E8 ; 4.0538920746988976E10 ; 38819.25999999996
110 ; 4775747.118335353 ; 4.022559420198005E8 ; 5.1978187778409934E8 ; 4.094116461848761E10 ; 39175.39999999996
111 ; 4774645.201628121 ; 4.0226801296098757E8 ; 5.245576249024347E8 ; 4.134342056050741E10 ; 39531.53999999996
112 ; 4773928.42484862 ; 4.0228008340379643E8 ; 5.2933227010406286E8 ; 4.17456885734684E10 ; 39887.67999999996
113 ; 4771234.692940814 ; 4.022921524495117E8 ; 5.341061985289115E8 ; 4.214796865687219E10 ; 40243.819999999956
114 ; 4772913.018665535 ; 4.023042192184651E8 ; 5.388774332218523E8 ; 4.25502608093217E10 ; 40599.959999999955
115 ; 4771052.474918977 ; 4.023162828494252E8 ; 5.436503462405179E8 ; 4.295256502854017E10 ; 40956.099999999955
116 ; 4771530.8519082535 ; 4.023283424990095E8 ; 5.484213987154368E8 ; 4.3354881311389595E10 ; 41312.239999999954
117 ; 4769150.001282084 ; 4.0234039734111726E8 ; 5.53192929567345E8 ; 4.37572096538886E10 ; 41668.379999999954
118 ; 4772117.556380512 ; 4.02352446566383E8 ; 5.579620795686271E8 ; 4.415955005122972E10 ; 42024.51999999995
119 ; 4768270.360864579 ; 4.0236448938165015E8 ; 5.627341971250076E8 ; 4.4561902497796104E10 ; 42380.65999999995
120 ; 4769524.401157819 ; 4.02376525009463E8 ; 5.675024674858721E8 ; 4.496426698717776E10 ; 42736.79999999995
121 ; 4769054.88969319 ; 4.023885526875775E8 ; 5.7227199188703E8 ; 4.536664351218722E10 ; 43092.93999999995
122 ; 4767400.902025092 ; 4.0240057166848975E8 ; 5.770410467767231E8 ; 4.5769032064874794E10 ; 43449.07999999995
123 ; 4764974.752668939 ; 4.02412581218981E8 ; 5.818084476787483E8 ; 4.617143263654328E10 ; 43805.21999999995
124 ; 4763866.582826637 ; 4.0242458061967987E8 ; 5.865734224314172E8 ; 4.657384521776226E10 ; 44161.35999999995
125 ; 4763300.4917953275 ; 4.0243656916463935E8 ; 5.913372890142438E8 ; 4.697626979838194E10 ; 44517.49999999995
126 ; 4758528.635259321 ; 4.024485461609301E8 ; 5.961005895060391E8 ; 4.7378706367546585E10 ; 44873.63999999995
127 ; 4759393.635864087 ; 4.0246051092824745E8 ; 6.008591181412984E8 ; 4.778115491370751E10 ; 45229.77999999995
128 ; 4753392.44825744 ; 4.024724627985331E8 ; 6.056185117771626E8 ; 4.818361542463576E10 ; 45585.91999999995
129 ; 4752409.179439076 ; 4.024844011156101E8 ; 6.1037190422542E8 ; 4.858608788743429E10 ; 45942.05999999995
130 ; 4751240.079802967 ; 4.024963252348311E8 ; 6.151243134048591E8 ; 4.89885722885499E10 ; 46298.199999999946
131 ; 4749429.288672506 ; 4.025082345227388E8 ; 6.19875553484662E8 ; 4.939106861378473E10 ; 46654.339999999946
132 ; 4746633.072767701 ; 4.025201283567393E8 ; 6.246249827733345E8 ; 4.9793576848307465E10 ; 47010.479999999945
133 ; 4747519.796290624 ; 4.025320061247859E8 ; 6.293716158461022E8 ; 5.019609697666421E10 ; 47366.619999999944
134 ; 4745315.519929782 ; 4.025438672250754E8 ; 6.341191356423929E8 ; 5.0598628982788994E10 ; 47722.759999999944
135 ; 4744285.536136167 ; 4.025557110657543E8 ; 6.388644511623226E8 ; 5.100117285001407E10 ; 48078.89999999994
136 ; 4744005.365692396 ; 4.0256753706463563E8 ; 6.436087366984588E8 ; 5.140372856107983E10 ; 48435.03999999994
137 ; 4741886.60384345 ; 4.0257934464892626E8 ; 6.483527420641512E8 ; 5.180629609814446E10 ; 48791.17999999994
138 ; 4739385.609957321 ; 4.025911332549628E8 ; 6.530946286679946E8 ; 5.220887544279339E10 ; 49147.31999999994
139 ; 4738687.072998829 ; 4.026029023279581E8 ; 6.57834014277952E8 ; 5.261146657604835E10 ; 49503.45999999994
140 ; 4737433.880948003 ; 4.026146513217554E8 ; 6.625727013509508E8 ; 5.3014069478376305E10 ; 49859.59999999994
141 ; 4734188.054131631 ; 4.0262637969859195E8 ; 6.673101352318988E8 ; 5.341668412969806E10 ; 50215.73999999994
142 ; 4734285.146732984 ; 4.0263808692887056E8 ; 6.720443232860304E8 ; 5.381931050939665E10 ; 50571.87999999994
143 ; 4731294.47341696 ; 4.026497724909391E8 ; 6.767786084327633E8 ; 5.422194859632552E10 ; 50928.01999999994
144 ; 4730419.276637087 ; 4.026614358708777E8 ; 6.815099029061803E8 ; 5.462459836881646E10 ; 51284.15999999994
145 ; 4730815.9587869495 ; 4.026730765622934E8 ; 6.862403221828173E8 ; 5.502725980468734E10 ; 51640.29999999994
146 ; 4728831.327260281 ; 4.026846940661219E8 ; 6.909711381416043E8 ; 5.542993288124963E10 ; 51996.43999999994
147 ; 4728432.602494146 ; 4.026962878904358E8 ; 6.956999694688646E8 ; 5.583261757531576E10 ; 52352.579999999936
148 ; 4723434.5294219535 ; 4.0270785755026025E8 ; 7.004284020713587E8 ; 5.623531386320619E10 ; 52708.719999999936
149 ; 4719154.91297468 ; 4.027194025673939E8 ; 7.051518366007806E8 ; 5.6638021720756454E10 ; 53064.859999999935
150 ; 4711184.049967693 ; 4.0273092247023666E8 ; 7.098709915137553E8 ; 5.7040741123323845E10 ; 53420.999999999935
151 ; 4707052.0592538435 ; 4.027424167936235E8 ; 7.14582175563723E8 ; 5.744347204579408E10 ; 53777.139999999934
152 ; 4698348.400399533 ; 4.027538850786631E8 ; 7.192892276229768E8 ; 5.784621446258771E10 ; 54133.27999999993
153 ; 4691697.20223886 ; 4.027653268725827E8 ; 7.239875760233763E8 ; 5.8248968347666374E10 ; 54489.41999999993
154 ; 4685147.736104163 ; 4.0277674172857785E8 ; 7.286792732256153E8 ; 5.8651733674538956E10 ; 54845.55999999993
155 ; 4681352.165652643 ; 4.0278812920566773E8 ; 7.333644209617194E8 ; 5.905451041626753E10 ; 55201.69999999993
156 ; 4672837.305191456 ; 4.027994888685543E8 ; 7.38045773127372E8 ; 5.94572985454732E10 ; 55557.83999999993
157 ; 4666228.605148824 ; 4.028108202874875E8 ; 7.427186104325634E8 ; 5.986009803434175E10 ; 55913.97999999993
158 ; 4662128.3767338 ; 4.0282212303813386E8 ; 7.473848390377122E8 ; 6.026290885462924E10 ; 56270.11999999993
159 ; 4655223.412595642 ; 4.028333967014501E8 ; 7.52046967414446E8 ; 6.066573097766737E10 ; 56626.25999999993
160 ; 4648024.79280297 ; 4.028446408635609E8 ; 7.567021908270416E8 ; 6.106856437436882E10 ; 56982.39999999993
161 ; 4639799.3515469385 ; 4.028558551156404E8 ; 7.613502156198446E8 ; 6.147140901523238E10 ; 57338.53999999993
162 ; 4635072.818095768 ; 4.028670390537982E8 ; 7.659900149713914E8 ; 6.187426487034802E10 ; 57694.67999999993
163 ; 4626353.969743995 ; 4.028781922789681E8 ; 7.706250877894872E8 ; 6.227713190940182E10 ; 58050.81999999993
164 ; 4618759.176186896 ; 4.0288931439680195E8 ; 7.752514417592312E8 ; 6.2680010101680786E10 ; 58406.95999999993
165 ; 4613802.01481239 ; 4.029004050175659E8 ; 7.798702009354181E8 ; 6.308289941607759E10 ; 58763.099999999926
166 ; 4605069.451798044 ; 4.029114637560401E8 ; 7.844840029502305E8 ; 6.348579982109515E10 ; 59119.239999999925
167 ; 4596862.305063729 ; 4.029224902314223E8 ; 7.890890724020286E8 ; 6.38887112848512E10 ; 59475.379999999925
168 ; 4590372.650065131 ; 4.029334840672342E8 ; 7.936859347070923E8 ; 6.429163377508262E10 ; 59831.519999999924
169 ; 4584846.121296755 ; 4.029444448912307E8 ; 7.982763073571575E8 ; 6.469456725914986E10 ; 60187.65999999992
170 ; 4578173.971570503 ; 4.029553723353124E8 ; 8.028611534784542E8 ; 6.5097511704041084E10 ; 60543.79999999992
171 ; 4567952.360958053 ; 4.029662660354408E8 ; 8.074393274500247E8 ; 6.5500467076376396E10 ; 60899.93999999992
172 ; 4563536.883511018 ; 4.0297712563155603E8 ; 8.120072798109828E8 ; 6.5903433342411835E10 ; 61256.07999999992
173 ; 4556706.1667931415 ; 4.02987950767498E8 ; 8.165708166944939E8 ; 6.630641046804339E10 ; 61612.21999999992
174 ; 4551599.622503289 ; 4.029987410909287E8 ; 8.21127522861287E8 ; 6.670939841881088E10 ; 61968.35999999992
175 ; 4546020.469266159 ; 4.0300949625325847E8 ; 8.256791224837903E8 ; 6.711239715990181E10 ; 62324.49999999992
176 ; 4541550.180336709 ; 4.030202159095737E8 ; 8.302251429530565E8 ; 6.751540665615507E10 ; 62680.63999999992
177 ; 4535682.901694307 ; 4.030308997185669E8 ; 8.347666931333932E8 ; 6.7918426872064644E10 ; 63036.77999999992
