CSV File for the Network on Day 227
1 - Minute m 
2 - Power Consumed at minute m 
3 - Power Produced at minute m 
4 - Energy Consumed since the beginning of the day 
5 - Energy Produced since the beginning of the day 
6 - Energy Lost since the beginning of the day 
 
0 ; 541389.193663195 ; 2.104713448077708E8 ; 0.0 ; 0.0 ; 0.0
1 ; 543306.450673446 ; 2.107717712445681E8 ; 541389.193663195 ; 2.104713448077708E8 ; 356.14
2 ; 547896.2512521474 ; 2.1168991519349313E8 ; 1084695.6443366408 ; 4.212431160523389E8 ; 712.28
3 ; 553707.0411609204 ; 2.1322585781654543E8 ; 1632591.8955887882 ; 6.32933031245832E8 ; 1068.42
4 ; 557562.967588913 ; 2.1537969397913545E8 ; 2186298.936749709 ; 8.461588890623775E8 ; 1424.56
5 ; 562577.6510753691 ; 2.1815153188009363E8 ; 2743861.904338622 ; 1.061538583041513E9 ; 1780.6999999999998
6 ; 566597.8606525069 ; 2.215414904467129E8 ; 3306439.555413991 ; 1.2796901149216065E9 ; 2136.8399999999997
7 ; 573227.7022733362 ; 2.255496934440118E8 ; 3873037.416066498 ; 1.5012316053683195E9 ; 2492.9799999999996
8 ; 577352.5975586653 ; 2.3017625964130265E8 ; 4446265.118339835 ; 1.7267812988123312E9 ; 2849.1199999999994
9 ; 582625.8147279803 ; 2.3542128955749166E8 ; 5023617.7158985 ; 1.9569575584536338E9 ; 3205.2599999999993
10 ; 585529.2119981991 ; 2.4128485116537416E8 ; 5606243.5306264805 ; 2.1923788480111256E9 ; 3561.399999999999
11 ; 588499.053623292 ; 2.477669685698374E8 ; 6191772.74262468 ; 2.4336636991765E9 ; 3917.539999999999
12 ; 593209.5219758908 ; 2.5486761766599405E8 ; 6780271.796247971 ; 2.6814306677463374E9 ; 4273.679999999999
13 ; 594640.258358062 ; 2.6258673048104882E8 ; 7373481.318223862 ; 2.9362982854123316E9 ; 4629.82
14 ; 597498.9624835855 ; 2.7092420649609566E8 ; 7968121.576581924 ; 3.19888501589338E9 ; 4985.96
15 ; 603497.886362944 ; 2.7987992694182193E8 ; 8565620.53906551 ; 3.469809222389476E9 ; 5342.1
16 ; 606777.8831996024 ; 2.8945376805320954E8 ; 9169118.425428454 ; 3.749689149331298E9 ; 5698.240000000001
17 ; 610027.445357197 ; 2.996456109029652E8 ; 9775896.308628056 ; 4.039142917384507E9 ; 6054.380000000001
18 ; 615408.030765585 ; 3.104553472922585E8 ; 1.0385923753985252E7 ; 4.338788528287473E9 ; 6410.520000000001
19 ; 617903.4890484421 ; 3.2188288235567915E8 ; 1.1001331784750838E7 ; 4.649243875579731E9 ; 6766.660000000002
20 ; 621299.2527737375 ; 3.3392813493122745E8 ; 1.161923527379928E7 ; 4.9711267579354105E9 ; 7122.800000000002
21 ; 626353.8811571341 ; 3.465910366541672E8 ; 1.2240534526573017E7 ; 5.305054892866638E9 ; 7478.940000000002
22 ; 629787.5894368867 ; 3.5987153046582663E8 ; 1.2866888407730151E7 ; 5.651645929520805E9 ; 7835.080000000003
23 ; 632974.5397429427 ; 3.7376956896394634E8 ; 1.3496675997167038E7 ; 6.011517459986632E9 ; 8191.220000000003
24 ; 635491.5094991481 ; 3.882851128241197E8 ; 1.412965053690998E7 ; 6.385287028950579E9 ; 8547.360000000002
25 ; 641958.5256354287 ; 4.0079421119229263E8 ; 1.4765142046409128E7 ; 6.773572141774698E9 ; 8903.500000000002
26 ; 646209.9989808532 ; 4.00803932560991E8 ; 1.5407100572044557E7 ; 7.17436635296699E9 ; 9259.640000000001
27 ; 649291.6689213914 ; 4.0081379282257754E8 ; 1.605331057102541E7 ; 7.575170285527982E9 ; 9615.78
28 ; 652951.2800338255 ; 4.008237729456921E8 ; 1.6702602239946801E7 ; 7.975984078350559E9 ; 9971.92
29 ; 655752.216361467 ; 4.008338568974056E8 ; 1.7355553519980628E7 ; 8.376807851296251E9 ; 10328.06
30 ; 660510.5783535438 ; 4.0084403110539186E8 ; 1.8011305736342095E7 ; 8.777641708193657E9 ; 10684.199999999999
31 ; 662840.6491940726 ; 4.0085428402315086E8 ; 1.8671816314695638E7 ; 9.17848573929905E9 ; 11040.339999999998
32 ; 665146.3329200112 ; 4.008646057783737E8 ; 1.933465696388971E7 ; 9.5793400233222E9 ; 11396.479999999998
33 ; 671692.9453914225 ; 4.008749878880408E8 ; 1.999980329680972E7 ; 9.980204629100574E9 ; 11752.619999999997
34 ; 675835.9268201509 ; 4.008854230269655E8 ; 2.0671496242201146E7 ; 1.0381079616988615E10 ; 12108.759999999997
35 ; 674712.2233235107 ; 4.008959048391355E8 ; 2.1347332169021297E7 ; 1.0781965040015581E10 ; 12464.899999999996
36 ; 681844.0699172241 ; 4.009064277833662E8 ; 2.2022044392344806E7 ; 1.1182860944854717E10 ; 12821.039999999995
37 ; 682027.3909817954 ; 4.0091698700652534E8 ; 2.270388846226203E7 ; 1.1583767372638084E10 ; 13177.179999999995
38 ; 688973.7552228112 ; 4.009275782389748E8 ; 2.3385915853243828E7 ; 1.198468435964461E10 ; 13533.319999999994
39 ; 687698.1625406267 ; 4.0093819770797646E8 ; 2.407488960846664E7 ; 1.2385611937883585E10 ; 13889.459999999994
40 ; 691420.2392788873 ; 4.0094884206567526E8 ; 2.4762587771007266E7 ; 1.2786550135591562E10 ; 14245.599999999993
41 ; 697217.1683198882 ; 4.009595083289558E8 ; 2.5454008010286152E7 ; 1.3187498977657238E10 ; 14601.739999999993
42 ; 699225.981495507 ; 4.0097019382901144E8 ; 2.615122517860604E7 ; 1.3588458485986195E10 ; 14957.879999999992
43 ; 701674.5249413949 ; 4.009808961688853E8 ; 2.6850451160101548E7 ; 1.3989428679815207E10 ; 15314.019999999991
44 ; 702159.7383057964 ; 4.00991613187585E8 ; 2.7552125685042944E7 ; 1.4390409575984093E10 ; 15670.15999999999
45 ; 706932.8487879168 ; 4.0100234292963696E8 ; 2.825428542334874E7 ; 1.4791401189171679E10 ; 16026.29999999999
46 ; 708629.8092277821 ; 4.010130836191609E8 ; 2.896121827213666E7 ; 1.5192403532101315E10 ; 16382.43999999999
47 ; 711909.8577725769 ; 4.010238336377131E8 ; 2.966984808136444E7 ; 1.5593416615720476E10 ; 16738.57999999999
48 ; 715171.2359017716 ; 4.0103459150528634E8 ; 3.038175793913702E7 ; 1.5994440449358189E10 ; 17094.71999999999
49 ; 716566.0536933108 ; 4.010453558639616E8 ; 3.1096929175038792E7 ; 1.6395475040863476E10 ; 17450.85999999999
50 ; 719149.0441035593 ; 4.0105612546379554E8 ; 3.18134952287321E7 ; 1.6796520396727438E10 ; 17806.99999999999
51 ; 721964.649746694 ; 4.010668991506E8 ; 3.253264427283566E7 ; 1.7197576522191235E10 ; 18163.13999999999
52 ; 723977.2954504519 ; 4.010776758553289E8 ; 3.3254608922582354E7 ; 1.7598643421341835E10 ; 18519.279999999988
53 ; 724465.2978393459 ; 4.0108845458483255E8 ; 3.397858621803281E7 ; 1.7999721097197163E10 ; 18875.419999999987
54 ; 727017.1698315257 ; 4.010992344137819E8 ; 3.470305151587215E7 ; 1.8400809551781994E10 ; 19231.559999999987
55 ; 729344.3135398575 ; 4.011100144775952E8 ; 3.543006868570368E7 ; 1.8801908786195774E10 ; 19587.699999999986
56 ; 732436.4163374351 ; 4.01120793966226E8 ; 3.6159412999243535E7 ; 1.920301880067337E10 ; 19943.839999999986
57 ; 732612.4791037181 ; 4.0113157211869425E8 ; 3.689184941558097E7 ; 1.9604139594639595E10 ; 20299.979999999985
58 ; 733375.5429813787 ; 4.011423482182599E8 ; 3.7624461894684695E7 ; 2.000527116675829E10 ; 20656.119999999984
59 ; 737645.5493582169 ; 4.0115312158815295E8 ; 3.835783743766607E7 ; 2.040641351497655E10 ; 21012.259999999984
60 ; 740030.746753881 ; 4.01163891587788E8 ; 3.909548298702429E7 ; 2.0807566636564705E10 ; 21368.399999999983
61 ; 744236.0072048673 ; 4.011746576093999E8 ; 3.983551373377817E7 ; 2.1208730528152493E10 ; 21724.539999999983
62 ; 744639.1019468411 ; 4.011854190750487E8 ; 4.057974974098304E7 ; 2.1609905185761894E10 ; 22080.679999999982
63 ; 746493.3437833546 ; 4.011961754339465E8 ; 4.132438884292988E7 ; 2.2011090604836945E10 ; 22436.81999999998
64 ; 748210.3629084609 ; 4.012069261600673E8 ; 4.207088218671323E7 ; 2.241228678027089E10 ; 22792.95999999998
65 ; 751326.787714674 ; 4.012176707500069E8 ; 4.2819092549621694E7 ; 2.2813493706430958E10 ; 23149.09999999998
66 ; 753182.0771843859 ; 4.0122840872106105E8 ; 4.357041933733637E7 ; 2.3214711377180965E10 ; 23505.23999999998
67 ; 757226.4882715022 ; 4.0123913960949844E8 ; 4.4323601414520755E7 ; 2.3615939785902027E10 ; 23861.37999999998
68 ; 757258.7288901283 ; 4.012498629690048E8 ; 4.508082790279226E7 ; 2.4017178925511524E10 ; 24217.51999999998
69 ; 759459.9849382186 ; 4.012605783692795E8 ; 4.583808663168239E7 ; 2.441842878848053E10 ; 24573.659999999978
70 ; 760088.7756806578 ; 4.012712853947674E8 ; 4.659754661662061E7 ; 2.4819689366849808E10 ; 24929.799999999977
71 ; 760082.8919188379 ; 4.0128198364351094E8 ; 4.735763539230127E7 ; 2.5220960652244576E10 ; 25285.939999999977
72 ; 763077.3002331563 ; 4.012926727261096E8 ; 4.811771828422011E7 ; 2.562224263588809E10 ; 25642.079999999976
73 ; 766617.3692349051 ; 4.013033522647761E8 ; 4.888079558445326E7 ; 2.6023535308614197E10 ; 25998.219999999976
74 ; 765650.0433868769 ; 4.0131402189247704E8 ; 4.964741295368817E7 ; 2.642483866087897E10 ; 26354.359999999975
75 ; 767074.5826461312 ; 4.013246812521516E8 ; 5.041306299707504E7 ; 2.6826152682771446E10 ; 26710.499999999975
76 ; 769004.0337515643 ; 4.0133532999599946E8 ; 5.1180137579721175E7 ; 2.7227477364023598E10 ; 27066.639999999974
77 ; 771657.2225011617 ; 4.0134596778483E8 ; 5.194914161347274E7 ; 2.7628812694019596E10 ; 27422.779999999973
78 ; 772109.0053370253 ; 4.013565942874679E8 ; 5.2720798835973896E7 ; 2.8030158661804424E10 ; 27778.919999999973
79 ; 773386.1836345972 ; 4.013672091802098E8 ; 5.349290784131092E7 ; 2.8431515256091892E10 ; 28135.059999999972
80 ; 776737.9725728715 ; 4.013778121463257E8 ; 5.426629402494551E7 ; 2.8832882465272102E10 ; 28491.19999999997
81 ; 779483.4629407454 ; 4.013884028756019E8 ; 5.504303199751838E7 ; 2.9234260277418427E10 ; 28847.33999999997
82 ; 778985.6050322062 ; 4.013989810639218E8 ; 5.582251546045913E7 ; 2.963564868029403E10 ; 29203.47999999997
83 ; 783148.7686755193 ; 4.014095464128796E8 ; 5.660150106549133E7 ; 3.0037047661357952E10 ; 29559.61999999997
84 ; 781981.7511136358 ; 4.014200986294259E8 ; 5.7384649834166855E7 ; 3.0438457207770832E10 ; 29915.75999999997
85 ; 785738.9382529872 ; 4.0143063742554045E8 ; 5.816663158528049E7 ; 3.0839877306400257E10 ; 30271.89999999997
86 ; 788204.9194273972 ; 4.0144116251793075E8 ; 5.895237052353348E7 ; 3.1241307943825798E10 ; 30628.039999999968
87 ; 787275.5652460348 ; 4.014516736277538E8 ; 5.974057544296087E7 ; 3.1642749106343727E10 ; 30984.179999999968
88 ; 788872.9510881489 ; 4.014621704803591E8 ; 6.052785100820691E7 ; 3.204420077997148E10 ; 31340.319999999967
89 ; 791440.8093813678 ; 4.0147265280505073E8 ; 6.131672395929506E7 ; 3.244566295045184E10 ; 31696.459999999966
90 ; 792157.5298352024 ; 4.01483120334868E8 ; 6.210816476867642E7 ; 3.284713560325689E10 ; 32052.599999999966
91 ; 792275.81357108 ; 4.01493572806381E8 ; 6.2900322298511624E7 ; 3.324861872359176E10 ; 32408.739999999965
92 ; 794562.5987928015 ; 4.01504009959502E8 ; 6.3692598112082705E7 ; 3.365011229639814E10 ; 32764.879999999965
93 ; 795588.6055887749 ; 4.015144315373105E8 ; 6.44871607108755E7 ; 3.4051616306357643E10 ; 33121.01999999997
94 ; 796572.4927074541 ; 4.0152483728589E8 ; 6.5282749316464275E7 ; 3.445313073789495E10 ; 33477.15999999997
95 ; 796239.3973572204 ; 4.015352269541774E8 ; 6.607932180917173E7 ; 3.485465557518084E10 ; 33833.29999999997
96 ; 799694.3079508999 ; 4.015456002938217E8 ; 6.687556120652895E7 ; 3.525619080213502E10 ; 34189.439999999966
97 ; 800288.071721965 ; 4.0155595705905414E8 ; 6.767525551447985E7 ; 3.565773640242884E10 ; 34545.579999999965
98 ; 801651.0947734378 ; 4.0156629700656545E8 ; 6.847554358620182E7 ; 3.605929235948789E10 ; 34901.719999999965
99 ; 801546.1429064727 ; 4.01576619895393E8 ; 6.927719468097526E7 ; 3.646085865649446E10 ; 35257.859999999964
100 ; 802237.7272832106 ; 4.0158692548681474E8 ; 7.007874082388173E7 ; 3.6862435276389854E10 ; 35613.99999999996
101 ; 805568.7710790872 ; 4.015972135442506E8 ; 7.088097855116494E7 ; 3.726402220187667E10 ; 35970.13999999996
102 ; 805566.8943478053 ; 4.0160748383317006E8 ; 7.168654732224403E7 ; 3.766561941542092E10 ; 36326.27999999996
103 ; 807004.8457560315 ; 4.016177361210065E8 ; 7.249211421659184E7 ; 3.806722689925409E10 ; 36682.41999999996
104 ; 808653.0247396553 ; 4.0162797017707646E8 ; 7.329911906234786E7 ; 3.84688446353751E10 ; 37038.55999999996
105 ; 809839.219756548 ; 4.016381857725046E8 ; 7.410777208708751E7 ; 3.887047260555218E10 ; 37394.69999999996
106 ; 811293.5369967115 ; 4.0164838268015325E8 ; 7.491761130684406E7 ; 3.9272110791324684E10 ; 37750.83999999996
107 ; 811751.9188354684 ; 4.016585606745566E8 ; 7.572890484384076E7 ; 3.967375917400484E10 ; 38106.97999999996
108 ; 811617.4157589162 ; 4.0166871953185904E8 ; 7.654065676267622E7 ; 4.007541773467939E10 ; 38463.11999999996
109 ; 815662.8917367511 ; 4.016788590297576E8 ; 7.735227417843515E7 ; 4.047708645421125E10 ; 38819.25999999996
110 ; 814261.7949965677 ; 4.016889789474474E8 ; 7.81679370701719E7 ; 4.0878765313241005E10 ; 39175.39999999996
111 ; 817187.1009850163 ; 4.0169907906557137E8 ; 7.898219886516847E7 ; 4.128045429218845E10 ; 39531.53999999996
112 ; 817897.0488009143 ; 4.0170915916617227E8 ; 7.979938596615349E7 ; 4.168215337125403E10 ; 39887.67999999996
113 ; 817784.1242907123 ; 4.0171921903264844E8 ; 8.06172830149544E7 ; 4.2083862530420204E10 ; 40243.819999999956
114 ; 816118.7314368979 ; 4.0172925844971144E8 ; 8.143506713924512E7 ; 4.248558174945285E10 ; 40599.959999999955
115 ; 818009.7064999911 ; 4.017392772033472E8 ; 8.225118587068202E7 ; 4.2887311007902565E10 ; 40956.099999999955
116 ; 820190.4810984104 ; 4.017492750807786E8 ; 8.306919557718201E7 ; 4.328905028510591E10 ; 41312.239999999954
117 ; 821873.2471919204 ; 4.0175925187043107E8 ; 8.388938605828042E7 ; 4.369079956018669E10 ; 41668.379999999954
118 ; 820830.6336545883 ; 4.0176920736189985E8 ; 8.471125930547234E7 ; 4.409255881205712E10 ; 42024.51999999995
119 ; 819289.8898465479 ; 4.017791413459196E8 ; 8.553208993912694E7 ; 4.449432801941902E10 ; 42380.65999999995
120 ; 821605.4717401627 ; 4.017890536143352E8 ; 8.635137982897349E7 ; 4.489610716076494E10 ; 42736.79999999995
121 ; 823664.269682093 ; 4.0179894396007496E8 ; 8.717298530071364E7 ; 4.529789621437927E10 ; 43092.93999999995
122 ; 824008.8206330484 ; 4.0180881217712504E8 ; 8.799664957039574E7 ; 4.569969515833935E10 ; 43449.07999999995
123 ; 820981.0712724717 ; 4.018186580605055E8 ; 8.882065839102879E7 ; 4.610150397051647E10 ; 43805.21999999995
124 ; 822725.0488129291 ; 4.01828481406248E8 ; 8.964163946230127E7 ; 4.650332262857698E10 ; 44161.35999999995
125 ; 822781.3100402765 ; 4.018382820113743E8 ; 9.04643645111142E7 ; 4.690515110998323E10 ; 44517.49999999995
126 ; 821882.0484746901 ; 4.018480596738765E8 ; 9.128714582115448E7 ; 4.7306989391994606E10 ; 44873.63999999995
127 ; 819272.0862033637 ; 4.018578141926985E8 ; 9.210902786962916E7 ; 4.770883745166848E10 ; 45229.77999999995
128 ; 820787.4610607205 ; 4.01867545367718E8 ; 9.292829995583253E7 ; 4.8110695265861176E10 ; 45585.91999999995
129 ; 820998.3130583885 ; 4.018772529997301E8 ; 9.374908741689324E7 ; 4.85125628112289E10 ; 45942.05999999995
130 ; 820056.2357244346 ; 4.018869368904319E8 ; 9.457008572995164E7 ; 4.891444006422863E10 ; 46298.199999999946
131 ; 818792.9817319909 ; 4.018965968424075E8 ; 9.539014196567607E7 ; 4.9316327001119064E10 ; 46654.339999999946
132 ; 821759.3910244606 ; 4.019062326591147E8 ; 9.620893494740807E7 ; 4.971822359796147E10 ; 47010.479999999945
133 ; 818659.4309009617 ; 4.019158441448716E8 ; 9.703069433843252E7 ; 5.012012983062058E10 ; 47366.619999999944
134 ; 819177.8724780537 ; 4.019254311048444E8 ; 9.784935376933348E7 ; 5.052204567476546E10 ; 47722.759999999944
135 ; 820865.0582154236 ; 4.019349933450365E8 ; 9.866853164181153E7 ; 5.09239711058703E10 ; 48078.89999999994
136 ; 820511.2729686132 ; 4.0194453067227745E8 ; 9.948939670002696E7 ; 5.132590609921534E10 ; 48435.03999999994
137 ; 819559.8205563908 ; 4.019540428942125E8 ; 1.0030990797299558E8 ; 5.172785062988762E10 ; 48791.17999999994
138 ; 821067.8684033972 ; 4.0196352981929386E8 ; 1.0112946779355197E8 ; 5.212980467278183E10 ; 49147.31999999994
139 ; 820480.2674968491 ; 4.019729912567713E8 ; 1.0195053566195536E8 ; 5.253176820260112E10 ; 49503.45999999994
140 ; 820224.8630962959 ; 4.019824270166842E8 ; 1.0277101592945221E8 ; 5.2933741193857895E10 ; 49859.59999999994
141 ; 819040.0307569572 ; 4.019918369098532E8 ; 1.0359124079254851E8 ; 5.333572362087458E10 ; 50215.73999999994
142 ; 819502.0913042185 ; 4.020012207478737E8 ; 1.0441028082330546E8 ; 5.373771545778443E10 ; 50571.87999999994
143 ; 820839.9301632717 ; 4.020105783431084E8 ; 1.0522978291460967E8 ; 5.41397166785323E10 ; 50928.01999999994
144 ; 820335.018546124 ; 4.020199095086812E8 ; 1.0605062284477293E8 ; 5.454172725687541E10 ; 51284.15999999994
145 ; 821707.306782577 ; 4.020292140584711E8 ; 1.0687095786331905E8 ; 5.4943747166384094E10 ; 51640.29999999994
146 ; 823672.1252915569 ; 4.020384918071068E8 ; 1.0769266517010163E8 ; 5.5345776380442566E10 ; 51996.43999999994
147 ; 824417.1537032046 ; 4.020477425699615E8 ; 1.0851633729539318E8 ; 5.574781487224967E10 ; 52352.579999999936
148 ; 828556.7852321337 ; 4.020569661631479E8 ; 1.0934075444909638E8 ; 5.614986261481963E10 ; 52708.719999999936
149 ; 829288.0906050133 ; 4.0206616240351415E8 ; 1.1016931123432851E8 ; 5.655191958098278E10 ; 53064.859999999935
150 ; 828556.4008236276 ; 4.020753311086391E8 ; 1.1099859932493353E8 ; 5.695398574338629E10 ; 53420.999999999935
151 ; 831048.7488214588 ; 4.0208447209682894E8 ; 1.1182715572575715E8 ; 5.7356061074494934E10 ; 53777.139999999934
152 ; 831589.8974489651 ; 4.0209358518711334E8 ; 1.126582044745786E8 ; 5.775814554659177E10 ; 54133.27999999993
153 ; 833198.8808249442 ; 4.021026701992426E8 ; 1.1348979437202758E8 ; 5.816023913177888E10 ; 54489.41999999993
154 ; 834671.1806448399 ; 4.02111726953684E8 ; 1.1432299325285251E8 ; 5.856234180197812E10 ; 54845.55999999993
155 ; 837142.7454346681 ; 4.021207552716196E8 ; 1.1515766443349735E8 ; 5.89644535289318E10 ; 55201.69999999993
156 ; 838876.153642784 ; 4.021297549749435E8 ; 1.1599480717893203E8 ; 5.936657428420342E10 ; 55557.83999999993
157 ; 841780.2359406275 ; 4.0213872588625956E8 ; 1.1683368333257481E8 ; 5.976870403917837E10 ; 55913.97999999993
158 ; 845238.8370182575 ; 4.02147667828879E8 ; 1.1767546356851543E8 ; 6.017084276506463E10 ; 56270.11999999993
159 ; 845448.6195419997 ; 4.0215658062681925E8 ; 1.1852070240553369E8 ; 6.057299043289351E10 ; 56626.25999999993
160 ; 847822.3098114737 ; 4.0216546410480165E8 ; 1.1936615102507569E8 ; 6.0975147013520325E10 ; 56982.39999999993
161 ; 848753.0179371445 ; 4.021743180882499E8 ; 1.2021397333488716E8 ; 6.137731247762513E10 ; 57338.53999999993
162 ; 850271.4009089262 ; 4.021831424032893E8 ; 1.210627263528243E8 ; 6.177948679571338E10 ; 57694.67999999993
163 ; 847835.6809423569 ; 4.021919368767451E8 ; 1.2191299775373323E8 ; 6.218166993811667E10 ; 58050.81999999993
164 ; 852516.6079162572 ; 4.0220070133614147E8 ; 1.2276083343467559E8 ; 6.2583861874993416E10 ; 58406.95999999993
165 ; 853295.997274818 ; 4.0220943560970116E8 ; 1.2361335004259184E8 ; 6.298606257632956E10 ; 58763.099999999926
166 ; 854760.0459646184 ; 4.022181395263442E8 ; 1.2446664603986666E8 ; 6.338827201193926E10 ; 59119.239999999925
167 ; 855551.5023195973 ; 4.022268129156875E8 ; 1.2532140608583127E8 ; 6.379049015146561E10 ; 59475.379999999925
168 ; 858361.144279864 ; 4.0223545560804486E8 ; 1.2617695758815087E8 ; 6.4192716964381294E10 ; 59831.519999999924
169 ; 857049.1586437334 ; 4.0224406743442583E8 ; 1.2703531873243074E8 ; 6.459495241998934E10 ; 60187.65999999992
170 ; 861370.7095506655 ; 4.022526482265364E8 ; 1.2789236789107448E8 ; 6.499719648742377E10 ; 60543.79999999992
171 ; 862206.6923810482 ; 4.0226119781677806E8 ; 1.2875373860062514E8 ; 6.539944913565031E10 ; 60899.93999999992
172 ; 863888.2982360139 ; 4.022697160382486E8 ; 1.296159452930062E8 ; 6.580171033346709E10 ; 61256.07999999992
173 ; 864545.5907658186 ; 4.022782027247416E8 ; 1.3047983359124221E8 ; 6.620398004950533E10 ; 61612.21999999992
174 ; 866280.9403315008 ; 4.02286657710747E8 ; 1.3134437918200803E8 ; 6.660625825223007E10 ; 61968.35999999992
175 ; 868539.8267522134 ; 4.0229508083145154E8 ; 1.3221066012233953E8 ; 6.700854490994082E10 ; 62324.49999999992
176 ; 870058.932415533 ; 4.0230347192273855E8 ; 1.3307919994909175E8 ; 6.741083999077227E10 ; 62680.63999999992
177 ; 875673.3286236177 ; 4.023118308211893E8 ; 1.3394925888150728E8 ; 6.781314346269501E10 ; 63036.77999999992
