CSV File for the Network on Day 79
1 - Minute m 
2 - Power Consumed at minute m 
3 - Power Produced at minute m 
4 - Energy Consumed since the beginning of the day 
5 - Energy Produced since the beginning of the day 
6 - Energy Lost since the beginning of the day 
 
0 ; 4551193.849756161 ; 2.1101742272650382E8 ; 0.0 ; 0.0 ; 0.0
1 ; 4553912.7573951185 ; 2.1132328633969828E8 ; 4551193.849756161 ; 2.1101742272650382E8 ; 356.14
2 ; 4559655.8866270045 ; 2.1224671630591837E8 ; 9105106.60715128 ; 4.223407090662021E8 ; 712.28
3 ; 4563741.121327793 ; 2.1378771589148465E8 ; 1.3664762493778285E7 ; 6.345874253721205E8 ; 1068.42
4 ; 4566169.645324851 ; 2.1594628802799395E8 ; 1.8228503615106076E7 ; 8.483751412636051E8 ; 1424.56
5 ; 4572877.815201503 ; 2.1872243529460058E8 ; 2.279467326043093E7 ; 1.064321429291599E9 ; 1780.6999999999998
6 ; 4578301.566726399 ; 2.221161599021E8 ; 2.736755107563243E7 ; 1.2830438645861995E9 ; 2136.8399999999997
7 ; 4579752.5477118045 ; 2.2612746367904106E8 ; 3.194585264235883E7 ; 1.5051600244882996E9 ; 2492.9799999999996
8 ; 4585479.558118368 ; 2.3075634806006667E8 ; 3.652560519007063E7 ; 1.7312874881673408E9 ; 2849.1199999999994
9 ; 4588672.575539972 ; 2.360028140766578E8 ; 4.1111084748188995E7 ; 1.9620438362274075E9 ; 3205.2599999999993
10 ; 4590845.494501608 ; 2.4186686235041818E8 ; 4.5699757323728964E7 ; 2.198046650304065E9 ; 3561.399999999999
11 ; 4593996.299945591 ; 2.4834849308900353E8 ; 5.029060281823057E7 ; 2.4399135126544833E9 ; 3917.539999999999
12 ; 4596482.859319639 ; 2.5544770608475807E8 ; 5.488459911817616E7 ; 2.688262005743487E9 ; 4273.679999999999
13 ; 4600921.579843227 ; 2.6316450071607807E8 ; 5.9481081977495804E7 ; 2.943709711828245E9 ; 4629.82
14 ; 4604640.78790877 ; 2.714988759514828E8 ; 6.408200355733903E7 ; 3.2068742125443234E9 ; 4985.96
15 ; 4608573.7801380465 ; 2.8045083035632896E8 ; 6.86866443452478E7 ; 3.478373088495806E9 ; 5342.1
16 ; 4612304.839872279 ; 2.9002036210206807E8 ; 7.329521812538585E7 ; 3.758823918852135E9 ; 5698.240000000001
17 ; 4613735.087906235 ; 3.0020746897790444E8 ; 7.790752296525814E7 ; 4.048844280954203E9 ; 6054.380000000001
18 ; 4616183.152016693 ; 3.110121484046838E8 ; 8.252125805316438E7 ; 4.349051749932108E9 ; 6410.520000000001
19 ; 4620590.326243221 ; 3.224343974508094E8 ; 8.713744120518108E7 ; 4.660063898336792E9 ; 6766.660000000002
20 ; 4623172.209334899 ; 3.3447421284996057E8 ; 9.17580315314243E7 ; 4.982498295787601E9 ; 7122.800000000002
21 ; 4626361.005279304 ; 3.4713159102037156E8 ; 9.63812037407592E7 ; 5.316972508637562E9 ; 7478.940000000002
22 ; 4628921.620913578 ; 3.604065280854139E8 ; 1.010075647460385E8 ; 5.664104099657933E9 ; 7835.080000000003
23 ; 4632988.901848673 ; 3.742990198952219E8 ; 1.0563648636695208E8 ; 6.024510627743347E9 ; 8191.220000000003
24 ; 4636172.129671577 ; 3.8880906204909694E8 ; 1.1026947526880075E8 ; 6.398809647638569E9 ; 8547.360000000002
25 ; 4639021.980289489 ; 4.0131273171479994E8 ; 1.1490564739847232E8 ; 6.787618709687666E9 ; 8903.500000000002
26 ; 4641764.456244269 ; 4.0131711972553945E8 ; 1.1954466937876181E8 ; 7.188931441402466E9 ; 9259.640000000001
27 ; 4646145.8428299865 ; 4.0132175965300924E8 ; 1.2418643383500609E8 ; 7.590248561128005E9 ; 9615.78
28 ; 4647408.030086541 ; 4.013266463239788E8 ; 1.2883257967783608E8 ; 7.991570320781014E9 ; 9971.92
29 ; 4650402.1863949895 ; 4.0133177442944217E8 ; 1.3347998770792262E8 ; 8.392896967104993E9 ; 10328.06
30 ; 4654622.024636373 ; 4.0133713854671097E8 ; 1.3813038989431763E8 ; 8.794228741534435E9 ; 10684.199999999999
31 ; 4653946.79217553 ; 4.0134273316078246E8 ; 1.42785011918954E8 ; 9.195565880081146E9 ; 11040.339999999998
32 ; 4658547.183624017 ; 4.013485526848498E8 ; 1.4743895871112955E8 ; 9.596908613241928E9 ; 11396.479999999998
33 ; 4661614.360378688 ; 4.013545914798426E8 ; 1.5209750589475358E8 ; 9.998257165926779E9 ; 11752.619999999997
34 ; 4665139.237053217 ; 4.0136084387290835E8 ; 1.5675912025513226E8 ; 1.0399611757406622E10 ; 12108.759999999997
35 ; 4665939.6438222965 ; 4.0136730417476845E8 ; 1.6142425949218547E8 ; 1.080097260127953E10 ; 12464.899999999996
36 ; 4666077.601448896 ; 4.013739666959013E8 ; 1.6609019913600776E8 ; 1.1202339905454298E10 ; 12821.039999999995
37 ; 4670204.193280405 ; 4.0138082576152384E8 ; 1.7075627673745665E8 ; 1.16037138721502E10 ; 13177.179999999995
38 ; 4675138.66611244 ; 4.0138787572536194E8 ; 1.7542648093073705E8 ; 1.2005094697911724E10 ; 13533.319999999994
39 ; 4675705.69368919 ; 4.013951109822111E8 ; 1.801016195968495E8 ; 1.2406482573637087E10 ; 13889.459999999994
40 ; 4678495.82408018 ; 4.0140252597930646E8 ; 1.847773252905387E8 ; 1.2807877684619297E10 ; 14245.599999999993
41 ; 4679494.595448338 ; 4.0141011522652984E8 ; 1.8945582111461887E8 ; 1.3209280210598604E10 ; 14601.739999999993
42 ; 4679658.173458995 ; 4.01417873305491E8 ; 1.941353157100672E8 ; 1.3610690325825134E10 ; 14957.879999999992
43 ; 4681522.44454834 ; 4.0142579487752885E8 ; 1.988149738835262E8 ; 1.4012108199130625E10 ; 15314.019999999991
44 ; 4683826.390269524 ; 4.014338746906848E8 ; 2.0349649632807454E8 ; 1.4413533994008154E10 ; 15670.15999999999
45 ; 4685505.197380986 ; 4.0144210758570194E8 ; 2.0818032271834406E8 ; 1.481496786869884E10 ; 16026.29999999999
46 ; 4687554.509483697 ; 4.014504885011114E8 ; 2.1286582791572505E8 ; 1.5216409976284542E10 ; 16382.43999999999
47 ; 4687545.7056097835 ; 4.014590124774642E8 ; 2.1755338242520875E8 ; 1.5617860464785654E10 ; 16738.57999999999
48 ; 4694110.069308131 ; 4.0146767466077226E8 ; 2.2224092813081855E8 ; 1.6019319477263119E10 ; 17094.71999999999
49 ; 4693249.259685452 ; 4.014764703052187E8 ; 2.2693503820012668E8 ; 1.6420787151923891E10 ; 17450.85999999999
50 ; 4694692.922961489 ; 4.014853947751983E8 ; 2.3162828745981213E8 ; 1.682226362222911E10 ; 17806.99999999999
51 ; 4694987.725010957 ; 4.0149444354674715E8 ; 2.3632298038277364E8 ; 1.722374901700431E10 ; 18163.13999999999
52 ; 4695753.241207967 ; 4.015036122084192E8 ; 2.410179681077846E8 ; 1.7625243460551056E10 ; 18519.279999999988
53 ; 4698932.819090168 ; 4.015128964616637E8 ; 2.4571372134899256E8 ; 1.8026747072759476E10 ; 18875.419999999987
54 ; 4696343.197199181 ; 4.015222921207554E8 ; 2.504126541680827E8 ; 1.8428259969221138E10 ; 19231.559999999987
55 ; 4696364.832031834 ; 4.015317951123276E8 ; 2.5510899736528188E8 ; 1.8829782261341892E10 ; 19587.699999999986
56 ; 4695259.147399919 ; 4.015414014745533E8 ; 2.5980536219731373E8 ; 1.923131405645422E10 ; 19943.839999999986
57 ; 4698862.279710389 ; 4.0155110735601807E8 ; 2.6450062134471366E8 ; 1.9632855457928772E10 ; 20299.979999999985
58 ; 4700983.756020832 ; 4.015609090143237E8 ; 2.6919948362442404E8 ; 2.003440656528479E10 ; 20656.119999999984
59 ; 4703641.818440298 ; 4.0157080281446064E8 ; 2.739004673804449E8 ; 2.0435967474299114E10 ; 21012.259999999984
60 ; 4703824.699235089 ; 4.0158078522698236E8 ; 2.786041091988852E8 ; 2.0837538277113575E10 ; 21368.399999999983
61 ; 4704318.838656898 ; 4.0159085282601285E8 ; 2.833079338981203E8 ; 2.1239119062340557E10 ; 21724.539999999983
62 ; 4706350.894845827 ; 4.016010022871155E8 ; 2.880122527367772E8 ; 2.164070991516657E10 ; 22080.679999999982
63 ; 4706631.753679587 ; 4.016112303850488E8 ; 2.92718603631623E8 ; 2.2042310917453686E10 ; 22436.81999999998
64 ; 4706450.6774903145 ; 4.016215339914319E8 ; 2.974252353853026E8 ; 2.2443922147838734E10 ; 22792.95999999998
65 ; 4707826.622615758 ; 4.016319100723412E8 ; 3.021316860627929E8 ; 2.2845543681830166E10 ; 23149.09999999998
66 ; 4707433.651004126 ; 4.0164235568585587E8 ; 3.0683951268540865E8 ; 2.3247175591902508E10 ; 23505.23999999998
67 ; 4710677.864074795 ; 4.0165286797956914E8 ; 3.115469463364128E8 ; 2.3648817947588364E10 ; 23861.37999999998
68 ; 4711155.110499165 ; 4.016634441880802E8 ; 3.1625762420048755E8 ; 2.4050470815567932E10 ; 24217.51999999998
69 ; 4711084.231170534 ; 4.0167408163047874E8 ; 3.209687793109867E8 ; 2.4452134259756012E10 ; 24573.659999999978
70 ; 4710701.033984605 ; 4.0168477770783484E8 ; 3.2567986354215723E8 ; 2.485380834138649E10 ; 24929.799999999977
71 ; 4710954.047393069 ; 4.01695529900702E8 ; 3.3039056457614183E8 ; 2.5255493119094326E10 ; 25285.939999999977
72 ; 4712923.799030311 ; 4.017063357666445E8 ; 3.351015186235349E8 ; 2.565718864899503E10 ; 25642.079999999976
73 ; 4713683.426139804 ; 4.017171929377937E8 ; 3.398144424225652E8 ; 2.6058894984761673E10 ; 25998.219999999976
74 ; 4712780.1563844215 ; 4.017280991184411E8 ; 3.4452812584870505E8 ; 2.6460612177699467E10 ; 26354.359999999975
75 ; 4712860.756309643 ; 4.0173905208267343E8 ; 3.4924090600508946E8 ; 2.686234027681791E10 ; 26710.499999999975
76 ; 4715569.769986332 ; 4.0175004967205334E8 ; 3.539537667613991E8 ; 2.726407932890058E10 ; 27066.639999999974
77 ; 4711256.410944895 ; 4.0176108979334956E8 ; 3.586693365313854E8 ; 2.7665829378572636E10 ; 27422.779999999973
78 ; 4711366.43937282 ; 4.017721704163199E8 ; 3.633805929423303E8 ; 2.8067590468365986E10 ; 27778.919999999973
79 ; 4713182.455066613 ; 4.0178328957154894E8 ; 3.6809195938170314E8 ; 2.8469362638782307E10 ; 28135.059999999972
80 ; 4714854.857446884 ; 4.0179444534834206E8 ; 3.7280514183676976E8 ; 2.8871145928353855E10 ; 28491.19999999997
81 ; 4713585.820584176 ; 4.018056358926772E8 ; 3.7751999669421667E8 ; 2.9272940373702198E10 ; 28847.33999999997
82 ; 4714502.601716191 ; 4.0181685940521514E8 ; 3.8223358251480085E8 ; 2.9674746009594875E10 ; 29203.47999999997
83 ; 4714680.567470873 ; 4.0182811413936895E8 ; 3.8694808511651707E8 ; 3.007656286900009E10 ; 29559.61999999997
84 ; 4716036.249391366 ; 4.0183939839943206E8 ; 3.916627656839879E8 ; 3.047839098313946E10 ; 29915.75999999997
85 ; 4715858.90228481 ; 4.018507105387656E8 ; 3.963788019333793E8 ; 3.0880230381538895E10 ; 30271.89999999997
86 ; 4714853.807310553 ; 4.0186204895804405E8 ; 4.010946608356641E8 ; 3.128208109207766E10 ; 30628.039999999968
87 ; 4714964.387096009 ; 4.0187341210355866E8 ; 4.058095146429747E8 ; 3.1683943141035706E10 ; 30984.179999999968
88 ; 4714313.06292166 ; 4.018847984655783E8 ; 4.1052447903007066E8 ; 3.2085816553139263E10 ; 31340.319999999967
89 ; 4715442.244630095 ; 4.018962065767661E8 ; 4.152387920929923E8 ; 3.2487701351604843E10 ; 31696.459999999966
90 ; 4714600.742161086 ; 4.019076350106509E8 ; 4.199542343376224E8 ; 3.288959755818161E10 ; 32052.599999999966
91 ; 4711511.216433034 ; 4.0191908238015354E8 ; 4.246688350797835E8 ; 3.329150519319226E10 ; 32408.739999999965
92 ; 4711852.429876749 ; 4.019305473361647E8 ; 4.2938034629621655E8 ; 3.3693424275572414E10 ; 32764.879999999965
93 ; 4712155.901813415 ; 4.019420285661751E8 ; 4.340921987260933E8 ; 3.409535482290858E10 ; 33121.01999999997
94 ; 4712534.523075538 ; 4.0195352479295456E8 ; 4.388043546279067E8 ; 3.4497296851474754E10 ; 33477.15999999997
95 ; 4711117.818665557 ; 4.01965034773281E8 ; 4.435168891509822E8 ; 3.489925037626771E10 ; 33833.29999999997
96 ; 4712784.102438709 ; 4.019765572967156E8 ; 4.4822800696964777E8 ; 3.5301215411040985E10 ; 34189.439999999966
97 ; 4710501.39349754 ; 4.0198809118442404E8 ; 4.5294079107208645E8 ; 3.57031919683377E10 ; 34545.579999999965
98 ; 4709441.10470256 ; 4.019996352880424E8 ; 4.57651292465584E8 ; 3.6105180059522125E10 ; 34901.719999999965
99 ; 4706939.409811171 ; 4.020111884885856E8 ; 4.623607335702865E8 ; 3.6507179694810165E10 ; 35257.859999999964
100 ; 4707045.341654008 ; 4.0202274969539714E8 ; 4.670676729800977E8 ; 3.690919088329875E10 ; 35613.99999999996
101 ; 4706768.612384085 ; 4.0203431784513986E8 ; 4.717747183217517E8 ; 3.731121363299415E10 ; 35970.13999999996
102 ; 4705882.905700478 ; 4.020458919008242E8 ; 4.764814869341358E8 ; 3.771324795083929E10 ; 36326.27999999996
103 ; 4705711.280448648 ; 4.0205747085087466E8 ; 4.811873698398363E8 ; 3.811529384274011E10 ; 36682.41999999996
104 ; 4707426.468167136 ; 4.020690537082318E8 ; 4.85893081120285E8 ; 3.851735131359099E10 ; 37038.55999999996
105 ; 4704481.861465386 ; 4.0208063950948936E8 ; 4.906005075884521E8 ; 3.891942036729922E10 ; 37394.69999999996
106 ; 4706878.922955607 ; 4.020922273140644E8 ; 4.953049894499175E8 ; 3.932150100680871E10 ; 37750.83999999996
107 ; 4704581.453175747 ; 4.0210381620339954E8 ; 5.000118683728731E8 ; 3.972359323412277E10 ; 38106.97999999996
108 ; 4701601.948999022 ; 4.0211540528019696E8 ; 5.0471644982604885E8 ; 4.012569705032617E10 ; 38463.11999999996
109 ; 4700169.071924393 ; 4.021269936676809E8 ; 5.094180517750479E8 ; 4.052781245560637E10 ; 38819.25999999996
110 ; 4701514.766306934 ; 4.021385805088901E8 ; 5.141182208469723E8 ; 4.092993944927405E10 ; 39175.39999999996
111 ; 4700845.983865769 ; 4.0215016496599674E8 ; 5.188197356132792E8 ; 4.1332078029782936E10 ; 39531.53999999996
112 ; 4698647.726930371 ; 4.0216174621965265E8 ; 5.23520581597145E8 ; 4.173422819474893E10 ; 39887.67999999996
113 ; 4698296.968925724 ; 4.021733234683603E8 ; 5.282192293240754E8 ; 4.213638994096858E10 ; 40243.819999999956
114 ; 4695963.484021406 ; 4.021848959278687E8 ; 5.329175262930011E8 ; 4.253856326443694E10 ; 40599.959999999955
115 ; 4695153.531827465 ; 4.021964628305925E8 ; 5.376134897770225E8 ; 4.2940748160364815E10 ; 40956.099999999955
116 ; 4695740.967550084 ; 4.0220802342505354E8 ; 5.423086433088499E8 ; 4.3342944623195404E10 ; 41312.239999999954
117 ; 4692267.527080477 ; 4.022195769753445E8 ; 5.470043842764E8 ; 4.374515264662046E10 ; 41668.379999999954
118 ; 4692688.301093731 ; 4.022311227606128E8 ; 5.516966518034805E8 ; 4.41473722235958E10 ; 42024.51999999995
119 ; 4690639.011342276 ; 4.022426600745647E8 ; 5.563893401045742E8 ; 4.4549603346356415E10 ; 42380.65999999995
120 ; 4689699.827300546 ; 4.0225418822498846E8 ; 5.610799791159165E8 ; 4.495184600643098E10 ; 42736.79999999995
121 ; 4688914.74637103 ; 4.02265706533296E8 ; 5.65769678943217E8 ; 4.535410019465597E10 ; 43092.93999999995
122 ; 4687746.548690439 ; 4.022772143340821E8 ; 5.704585936895881E8 ; 4.575636590118926E10 ; 43449.07999999995
123 ; 4685289.655811546 ; 4.022887109747002E8 ; 5.751463402382785E8 ; 4.6158643115523346E10 ; 43805.21999999995
124 ; 4682686.705022391 ; 4.023001958148554E8 ; 5.7983162989409E8 ; 4.656093182649805E10 ; 44161.35999999995
125 ; 4679525.334846924 ; 4.0231166822621155E8 ; 5.845143165991124E8 ; 4.6963232022312904E10 ; 44517.49999999995
126 ; 4676117.79664019 ; 4.023231275920149E8 ; 5.891938419339594E8 ; 4.7365543690539116E10 ; 44873.63999999995
127 ; 4675506.2101141615 ; 4.02334573306731E8 ; 5.938699597305995E8 ; 4.7767866818131134E10 ; 45229.77999999995
128 ; 4672887.8965859 ; 4.023460047756955E8 ; 5.985454659407136E8 ; 4.817020139143787E10 ; 45585.91999999995
129 ; 4668075.157978137 ; 4.023574214147789E8 ; 6.032183538372996E8 ; 4.857254739621356E10 ; 45942.05999999995
130 ; 4669440.512434746 ; 4.023688226500629E8 ; 6.078864289952778E8 ; 4.897490481762834E10 ; 46298.199999999946
131 ; 4665069.755440832 ; 4.0238020791752994E8 ; 6.125558695077125E8 ; 4.9377273640278404E10 ; 46654.339999999946
132 ; 4662387.80588725 ; 4.0239157666276354E8 ; 6.172209392631533E8 ; 4.977965384819593E10 ; 47010.479999999945
133 ; 4660953.416012396 ; 4.024029283406606E8 ; 6.218833270690405E8 ; 5.0182045424858696E10 ; 47366.619999999944
134 ; 4657400.186362925 ; 4.0241426241515386E8 ; 6.26544280485053E8 ; 5.0584448353199356E10 ; 47722.759999999944
135 ; 4656397.11823542 ; 4.024255783589453E8 ; 6.312016806714159E8 ; 5.098686261561451E10 ; 48078.89999999994
136 ; 4656560.903985313 ; 4.024368756532486E8 ; 6.358580777896514E8 ; 5.138928819397346E10 ; 48435.03999999994
137 ; 4652253.886763631 ; 4.024481537875421E8 ; 6.405146386936367E8 ; 5.179172506962671E10 ; 48791.17999999994
138 ; 4648459.16028268 ; 4.0245941225933003E8 ; 6.451668925804002E8 ; 5.219417322341425E10 ; 49147.31999999994
139 ; 4648189.84657364 ; 4.0247065057391346E8 ; 6.49815351740683E8 ; 5.2596632635673584E10 ; 49503.45999999994
140 ; 4644226.522514405 ; 4.0248186824416846E8 ; 6.544635415872566E8 ; 5.29991032862475E10 ; 49859.59999999994
141 ; 4642988.028080256 ; 4.0249306479033345E8 ; 6.59107768109771E8 ; 5.340158515449167E10 ; 50215.73999999994
142 ; 4640088.634886956 ; 4.025042397398038E8 ; 6.637507561378512E8 ; 5.3804078219282005E10 ; 50571.87999999994
143 ; 4637541.997888301 ; 4.0251539262693405E8 ; 6.683908447727382E8 ; 5.420658245902181E10 ; 50928.01999999994
144 ; 4636724.802786865 ; 4.025265229928469E8 ; 6.730283867706265E8 ; 5.460909785164874E10 ; 51284.15999999994
145 ; 4633312.723760929 ; 4.0253763038525E8 ; 6.776651115734134E8 ; 5.501162437464159E10 ; 51640.29999999994
146 ; 4633427.694249688 ; 4.025487143582583E8 ; 6.822984242971743E8 ; 5.541416200502683E10 ; 51996.43999999994
147 ; 4632240.500415342 ; 4.025597744722235E8 ; 6.86931851991424E8 ; 5.581671071938509E10 ; 52352.579999999936
148 ; 4632008.713724425 ; 4.0257081029356927E8 ; 6.915640924918393E8 ; 5.6219270493857315E10 ; 52708.719999999936
149 ; 4631125.465994406 ; 4.0258182139463246E8 ; 6.961961012055637E8 ; 5.662184130415089E10 ; 53064.859999999935
150 ; 4631616.907239897 ; 4.025928073535101E8 ; 7.00827226671558E8 ; 5.702442312554552E10 ; 53420.999999999935
151 ; 4628568.633008897 ; 4.026037677539112E8 ; 7.054588435787979E8 ; 5.7427015932899025E10 ; 53777.139999999934
152 ; 4626674.275010822 ; 4.026147021850149E8 ; 7.100874122118068E8 ; 5.782961970065294E10 ; 54133.27999999993
153 ; 4625943.725566733 ; 4.026256102413324E8 ; 7.147140864868176E8 ; 5.823223440283795E10 ; 54489.41999999993
154 ; 4626783.32786997 ; 4.026364915225748E8 ; 7.193400302123843E8 ; 5.8634860013079285E10 ; 54845.55999999993
155 ; 4625925.481155158 ; 4.0264734563352454E8 ; 7.239668135402544E8 ; 5.903749650460186E10 ; 55201.69999999993
156 ; 4627836.020859186 ; 4.026581721839123E8 ; 7.285927390214095E8 ; 5.944014385023538E10 ; 55557.83999999993
157 ; 4628858.905214794 ; 4.0266897078829753E8 ; 7.332205750422688E8 ; 5.98428020224193E10 ; 55913.97999999993
158 ; 4626014.636578499 ; 4.026797410659535E8 ; 7.378494339474835E8 ; 6.0245470993207596E10 ; 56270.11999999993
159 ; 4625557.818185553 ; 4.0269048264075595E8 ; 7.42475448584062E8 ; 6.064815073427355E10 ; 56626.25999999993
160 ; 4621522.947010084 ; 4.0270119514107597E8 ; 7.471010064022475E8 ; 6.105084121691431E10 ; 56982.39999999993
161 ; 4622401.779438 ; 4.027118781996763E8 ; 7.517225293492576E8 ; 6.145354241205538E10 ; 57338.53999999993
162 ; 4621537.808026585 ; 4.02722531453611E8 ; 7.563449311286956E8 ; 6.185625429025506E10 ; 57694.67999999993
163 ; 4618621.20747473 ; 4.027331545441296E8 ; 7.609664689367222E8 ; 6.225897682170867E10 ; 58050.81999999993
164 ; 4617959.3156415075 ; 4.027437471165827E8 ; 7.655850901441969E8 ; 6.26617099762528E10 ; 58406.95999999993
165 ; 4616810.022810481 ; 4.027543088203325E8 ; 7.702030494598384E8 ; 6.3064453723369385E10 ; 58763.099999999926
166 ; 4616434.343096691 ; 4.027648393086654E8 ; 7.748198594826488E8 ; 6.346720803218972E10 ; 59119.239999999925
167 ; 4615345.3606845895 ; 4.0277533823870784E8 ; 7.794362938257456E8 ; 6.386997287149838E10 ; 59475.379999999925
168 ; 4614223.609679944 ; 4.0278580527134484E8 ; 7.840516391864302E8 ; 6.427274820973709E10 ; 59831.519999999924
169 ; 4611989.280668369 ; 4.0279624007114154E8 ; 7.886658627961102E8 ; 6.467553401500844E10 ; 60187.65999999992
170 ; 4611673.240196537 ; 4.02806642306267E8 ; 7.932778520767785E8 ; 6.507833025507958E10 ; 60543.79999999992
171 ; 4610601.858851884 ; 4.028170116484208E8 ; 7.978895253169751E8 ; 6.548113689738585E10 ; 60899.93999999992
172 ; 4609201.708564283 ; 4.028273477727622E8 ; 8.02500127175827E8 ; 6.588395390903427E10 ; 61256.07999999992
173 ; 4607207.071173636 ; 4.0283765035784096E8 ; 8.071093288843913E8 ; 6.628678125680703E10 ; 61612.21999999992
174 ; 4608125.042589758 ; 4.028479190855315E8 ; 8.11716535955565E8 ; 6.668961890716487E10 ; 61968.35999999992
175 ; 4610825.477153429 ; 4.028581536409683E8 ; 8.163246609981548E8 ; 6.7092466826250404E10 ; 62324.49999999992
176 ; 4608957.725104819 ; 4.02868353712484E8 ; 8.209354864753082E8 ; 6.749532497989137E10 ; 62680.63999999992
177 ; 4609108.68342514 ; 4.0287851899154925E8 ; 8.25544444200413E8 ; 6.789819333360386E10 ; 63036.77999999992
