CSV File for the Network on Day 364
1 - Minute m 
2 - Power Consumed at minute m 
3 - Power Produced at minute m 
4 - Energy Consumed since the beginning of the day 
5 - Energy Produced since the beginning of the day 
6 - Energy Lost since the beginning of the day 
 
0 ; 4544181.580051071 ; 2.10816107891881E8 ; 0.0 ; 0.0 ; 0.0
1 ; 4550023.945328222 ; 2.1112161143633723E8 ; 4544181.580051071 ; 2.10816107891881E8 ; 356.14
2 ; 4554159.392470877 ; 2.120447115299672E8 ; 9094205.525379293 ; 4.219377193282182E8 ; 712.28
3 ; 4557301.946910365 ; 2.135854138502937E8 ; 1.364836491785017E7 ; 6.339824308581854E8 ; 1068.42
4 ; 4559107.588085642 ; 2.157437235454991E8 ; 1.8205666864760533E7 ; 8.475678447084792E8 ; 1424.56
5 ; 4565252.738714763 ; 2.1851964518632698E8 ; 2.2764774452846177E7 ; 1.0633115682539783E9 ; 1780.6999999999998
6 ; 4569641.516210841 ; 2.2191318272192037E8 ; 2.733002719156094E7 ; 1.2818312134403052E9 ; 2136.8399999999997
7 ; 4572758.038237713 ; 2.259243394405523E8 ; 3.1899668707771778E7 ; 1.5037443961622257E9 ; 2492.9799999999996
8 ; 4575993.824610889 ; 2.3055311793613356E8 ; 3.647242674600949E7 ; 1.729668735602778E9 ; 2849.1199999999994
9 ; 4578656.386620413 ; 2.3579952008128178E8 ; 4.104842057062038E7 ; 1.9602218535389116E9 ; 3205.2599999999993
10 ; 4583509.549306522 ; 2.4166354700759703E8 ; 4.562707695724079E7 ; 2.1960213736201935E9 ; 3561.399999999999
11 ; 4587889.693511671 ; 2.481451990936275E8 ; 5.021058650654731E7 ; 2.4376849206277905E9 ; 3917.539999999999
12 ; 4592167.709521816 ; 2.5524447596082497E8 ; 5.479847620005898E7 ; 2.685830119721418E9 ; 4273.679999999999
13 ; 4594099.093755589 ; 2.629613764775893E8 ; 5.93906439095808E7 ; 2.941074595682243E9 ; 4629.82
14 ; 4597040.2432119595 ; 2.712958987713031E8 ; 6.3984743003336385E7 ; 3.204035972159832E9 ; 4985.96
15 ; 4601454.493561078 ; 2.8024804024805534E8 ; 6.858178324654834E7 ; 3.475331870931135E9 ; 5342.1
16 ; 4601828.947413116 ; 2.898177976195732E8 ; 7.318323774010941E7 ; 3.7555799111791906E9 ; 5698.240000000001
17 ; 4605000.048582488 ; 3.0000516693671346E8 ; 7.778506668752253E7 ; 4.0453977087987638E9 ; 6054.380000000001
18 ; 4607212.974376906 ; 3.108101436287326E8 ; 8.239006673610502E7 ; 4.345402875735477E9 ; 6410.520000000001
19 ; 4611842.169427539 ; 3.2223272254744834E8 ; 8.699727971048193E7 ; 4.65621301936421E9 ; 6766.660000000002
20 ; 4616124.001118125 ; 3.342728980153377E8 ; 9.160912187990947E7 ; 4.978445741911658E9 ; 7122.800000000002
21 ; 4618643.427850284 ; 3.469306638765829E8 ; 9.62252458810276E7 ; 5.312718639926996E9 ; 7478.940000000002
22 ; 4621205.37506851 ; 3.6020601355007476E8 ; 1.0084388930887789E8 ; 5.659649303803579E9 ; 7835.080000000003
23 ; 4626895.451265131 ; 3.7409894008341616E8 ; 1.054650946839464E8 ; 6.019855317353654E9 ; 8191.220000000003
24 ; 4627150.930881158 ; 3.8860943620702356E8 ; 1.1009199013521153E8 ; 6.39395425743707E9 ; 8547.360000000002
25 ; 4632071.556210368 ; 4.0111357618387234E8 ; 1.1471914106609268E8 ; 6.7825636936440935E9 ; 8903.500000000002
26 ; 4635107.631858408 ; 4.01118447935215E8 ; 1.1935121262230305E8 ; 7.183677269827966E9 ; 9259.640000000001
27 ; 4637075.0901270425 ; 4.01123582140242E8 ; 1.2398632025416146E8 ; 7.584795717763181E9 ; 9615.78
28 ; 4642667.011789088 ; 4.0112897077689445E8 ; 1.286233953442885E8 ; 7.985919299903422E9 ; 9971.92
29 ; 4641883.636691401 ; 4.011346057526374E8 ; 1.3326606235607758E8 ; 8.387048270680317E9 ; 10328.06
30 ; 4644744.030658232 ; 4.011404789454608E8 ; 1.3790794599276897E8 ; 8.788182876432955E9 ; 10684.199999999999
31 ; 4649539.125840612 ; 4.011465822414057E8 ; 1.4255269002342722E8 ; 9.189323355378416E9 ; 11040.339999999998
32 ; 4651247.844215329 ; 4.011529075685119E8 ; 1.4720222914926782E8 ; 9.590469937619822E9 ; 11396.479999999998
33 ; 4655457.932799645 ; 4.0115944692716295E8 ; 1.5185347699348316E8 ; 9.991622845188334E9 ; 11752.619999999997
34 ; 4654815.353068655 ; 4.011661924168743E8 ; 1.565089349262828E8 ; 1.0392782292115496E10 ; 12108.759999999997
35 ; 4657375.466970885 ; 4.0117313625962603E8 ; 1.6116375027935144E8 ; 1.079394848453237E10 ; 12464.899999999996
36 ; 4661085.556110559 ; 4.011802708198876E8 ; 1.6582112574632233E8 ; 1.1195121620791996E10 ; 12821.039999999995
37 ; 4662585.937388142 ; 4.011875886215155E8 ; 1.704822113024329E8 ; 1.1596301891611883E10 ; 13177.179999999995
38 ; 4664286.028049928 ; 4.011950823617314E8 ; 1.7514479723982105E8 ; 1.1997489480233398E10 ; 13533.319999999994
39 ; 4668806.538572495 ; 4.012027449224018E8 ; 1.7980908326787096E8 ; 1.2398684562595129E10 ; 13889.459999999994
40 ; 4670781.314408733 ; 4.0121056937885094E8 ; 1.8447788980644345E8 ; 1.279988730751753E10 ; 14245.599999999993
41 ; 4671922.629509177 ; 4.012185490064406E8 ; 1.8914867112085217E8 ; 1.3201097876896381E10 ; 14601.739999999993
42 ; 4672813.730066851 ; 4.0122667728514504E8 ; 1.9382059375036135E8 ; 1.3602316425902822E10 ; 14957.879999999992
43 ; 4674623.807578899 ; 4.012349479023473E8 ; 1.9849340748042822E8 ; 1.4003543103187967E10 ; 15314.019999999991
44 ; 4677193.992796078 ; 4.0124335475406814E8 ; 2.031680312880071E8 ; 1.4404778051090315E10 ; 15670.15999999999
45 ; 4674950.580354706 ; 4.0125189194482875E8 ; 2.078452252808032E8 ; 1.4806021405844383E10 ; 16026.29999999999
46 ; 4678941.56663322 ; 4.0126055378633654E8 ; 2.1252017586115792E8 ; 1.5207273297789211E10 ; 16382.43999999999
47 ; 4680065.004485204 ; 4.012693347951651E8 ; 2.1719911742779115E8 ; 1.5608533851575548E10 ; 16738.57999999999
48 ; 4684032.375813096 ; 4.012782296895867E8 ; 2.2187918243227634E8 ; 1.6009803186370714E10 ; 17094.71999999999
49 ; 4684611.412867767 ; 4.012872333857014E8 ; 2.2656321480808944E8 ; 1.64110814160603E10 ; 17450.85999999999
50 ; 4684648.315740228 ; 4.012963409929905E8 ; 2.312478262209572E8 ; 1.6812368649446003E10 ; 17806.99999999999
51 ; 4686239.717527681 ; 4.0130554780940926E8 ; 2.3593247453669742E8 ; 1.7213664990438995E10 ; 18163.13999999999
52 ; 4689008.254356662 ; 4.0131484931612086E8 ; 2.406187142542251E8 ; 1.7614970538248405E10 ; 18519.279999999988
53 ; 4687152.276196255 ; 4.0132424117196095E8 ; 2.4530772250858176E8 ; 1.8016285387564526E10 ; 18875.419999999987
54 ; 4687302.5281335 ; 4.013337192077095E8 ; 2.49994874784778E8 ; 1.841760962873649E10 ; 19231.559999999987
55 ; 4688355.565000106 ; 4.013432794202392E8 ; 2.546821773129115E8 ; 1.88189433479442E10 ; 19587.699999999986
56 ; 4691056.117691781 ; 4.013529179665974E8 ; 2.5937053287791163E8 ; 1.9220286627364437E10 ; 19943.839999999986
57 ; 4690463.127346391 ; 4.0136263115807104E8 ; 2.640615889956034E8 ; 1.9621639545331036E10 ; 20299.979999999985
58 ; 4691607.822265341 ; 4.0137241545427674E8 ; 2.687520521229498E8 ; 2.0023002176489105E10 ; 20656.119999999984
59 ; 4693773.826280879 ; 4.013822674573107E8 ; 2.734436599452151E8 ; 2.0424374591943382E10 ; 21012.259999999984
60 ; 4692870.613323439 ; 4.0139218390598726E8 ; 2.78137433771496E8 ; 2.0825756859400692E10 ; 21368.399999999983
61 ; 4696436.58930065 ; 4.0140216167019093E8 ; 2.8283030438481945E8 ; 2.122714904330668E10 ; 21724.539999999983
62 ; 4696626.791436341 ; 4.014121977453579E8 ; 2.875267409741201E8 ; 2.162855120497687E10 ; 22080.679999999982
63 ; 4696695.971392004 ; 4.014222892471061E8 ; 2.922233677655564E8 ; 2.202996340272223E10 ; 22436.81999999998
64 ; 4700264.002100667 ; 4.0143243340602076E8 ; 2.969200637369484E8 ; 2.2431385691969334E10 ; 22792.95999999998
65 ; 4700227.239966261 ; 4.014426275626078E8 ; 3.01620327739049E8 ; 2.2832818125375355E10 ; 23149.09999999998
66 ; 4700544.581946585 ; 4.0145286916241777E8 ; 3.063205549790153E8 ; 2.323426075293796E10 ; 23505.23999999998
67 ; 4701001.3605552185 ; 4.014631557513455E8 ; 3.110210995609619E8 ; 2.363571362210038E10 ; 23861.37999999998
68 ; 4699832.564260083 ; 4.014734849711069E8 ; 3.1572210092151713E8 ; 2.4037176777851727E10 ; 24217.51999999998
69 ; 4701206.627343201 ; 4.014838545548928E8 ; 3.204219334857772E8 ; 2.4438650262822834E10 ; 24573.659999999978
70 ; 4701274.874557036 ; 4.01494262323199E8 ; 3.251231401131204E8 ; 2.4840134117377728E10 ; 24929.799999999977
71 ; 4702853.128167668 ; 4.0150470617983013E8 ; 3.298244149876774E8 ; 2.5241628379700928E10 ; 25285.939999999977
72 ; 4703940.677460734 ; 4.0151518410807425E8 ; 3.345272681158451E8 ; 2.5643133085880756E10 ; 25642.079999999976
73 ; 4703185.407720103 ; 4.015256941670444E8 ; 3.392312087933058E8 ; 2.604464826998883E10 ; 25998.219999999976
74 ; 4703914.179881301 ; 4.01536234488183E8 ; 3.439343942010259E8 ; 2.6446173964155876E10 ; 26354.359999999975
75 ; 4702008.317634347 ; 4.0154680327192473E8 ; 3.486383083809072E8 ; 2.684771019864406E10 ; 26710.499999999975
76 ; 4701975.837870456 ; 4.015573987845112E8 ; 3.533403166985415E8 ; 2.724925700191598E10 ; 27066.639999999974
77 ; 4702917.302759563 ; 4.015680193549547E8 ; 3.58042292536412E8 ; 2.7650814400700493E10 ; 27422.779999999973
78 ; 4703415.458981488 ; 4.0157866337214375E8 ; 3.627452098391716E8 ; 2.8052382420055447E10 ; 27778.919999999973
79 ; 4701109.811625348 ; 4.015893292820852E8 ; 3.674486252981531E8 ; 2.845396108342759E10 ; 28135.059999999972
80 ; 4702109.314909276 ; 4.0160001558527863E8 ; 3.7214973510977846E8 ; 2.8855550412709675E10 ; 28491.19999999997
81 ; 4702808.140761057 ; 4.016107208342161E8 ; 3.7685184442468774E8 ; 2.9257150428294952E10 ; 28847.33999999997
82 ; 4701589.937546792 ; 4.016214436310027E8 ; 3.815546525654488E8 ; 2.965876114912917E10 ; 29203.47999999997
83 ; 4703338.3896099115 ; 4.016321826250926E8 ; 3.862562425029956E8 ; 3.0060382592760174E10 ; 29559.61999999997
84 ; 4702111.47065378 ; 4.016429365111352E8 ; 3.9095958089260554E8 ; 3.0462014775385265E10 ; 29915.75999999997
85 ; 4704937.631659955 ; 4.0165370402692586E8 ; 3.956616923632593E8 ; 3.08636577118964E10 ; 30271.89999999997
86 ; 4704262.573892968 ; 4.01664483951458E8 ; 4.003666299949193E8 ; 3.1265311415923325E10 ; 30628.039999999968
87 ; 4704784.0803444125 ; 4.016752751030693E8 ; 4.0507089256881225E8 ; 3.1666975899874783E10 ; 30984.179999999968
88 ; 4702583.122870711 ; 4.016860763376801E8 ; 4.097756766491567E8 ; 3.206865117497785E10 ; 31340.319999999967
89 ; 4702290.837663797 ; 4.01696886547117E8 ; 4.144782597720274E8 ; 3.2470337251315533E10 ; 31696.459999999966
90 ; 4702968.3713135775 ; 4.0170770465752006E8 ; 4.1918055060969114E8 ; 3.2872034137862648E10 ; 32052.599999999966
91 ; 4699614.2934138095 ; 4.0171852962782687E8 ; 4.238835189810047E8 ; 3.327374184252017E10 ; 32408.739999999965
92 ; 4700677.540554099 ; 4.017293604483322E8 ; 4.2858313327441853E8 ; 3.3675460372147995E10 ; 32764.879999999965
93 ; 4701218.638024037 ; 4.017401961393172E8 ; 4.3328381081497264E8 ; 3.407718973259633E10 ; 33121.01999999997
94 ; 4701527.974480694 ; 4.017510357497463E8 ; 4.379850294529967E8 ; 3.447892992873565E10 ; 33477.15999999997
95 ; 4699097.371511686 ; 4.017618783560277E8 ; 4.4268655742747736E8 ; 3.48806809644854E10 ; 33833.29999999997
96 ; 4699073.8382913675 ; 4.0177272306083375E8 ; 4.4738565479898906E8 ; 3.528244284284142E10 ; 34189.439999999966
97 ; 4697855.935615829 ; 4.017835689919796E8 ; 4.520847286372804E8 ; 3.568421556590226E10 ; 34545.579999999965
98 ; 4696656.648634791 ; 4.017944153013555E8 ; 4.5678258457289624E8 ; 3.608599913489424E10 ; 34901.719999999965
99 ; 4695779.274517498 ; 4.018052611639111E8 ; 4.6147924122153103E8 ; 3.6487793550195595E10 ; 35257.859999999964
100 ; 4694487.627673302 ; 4.018161057766893E8 ; 4.661750204960485E8 ; 3.6889598811359505E10 ; 35613.99999999996
101 ; 4694113.439809708 ; 4.018269483579052E8 ; 4.7086950812372184E8 ; 3.729141491713619E10 ; 35970.13999999996
102 ; 4694239.576862651 ; 4.018377881460708E8 ; 4.755636215635315E8 ; 3.7693241865494095E10 ; 36326.27999999996
103 ; 4693925.1250328375 ; 4.018486243991605E8 ; 4.8025786114039415E8 ; 3.809507965364017E10 ; 36682.41999999996
104 ; 4692385.228731408 ; 4.0185945639381707E8 ; 4.84951786265427E8 ; 3.849692827803933E10 ; 37038.55999999996
105 ; 4691900.803415741 ; 4.0187028342459464E8 ; 4.896441714941584E8 ; 3.889878773443314E10 ; 37394.69999999996
106 ; 4690332.165973143 ; 4.0188110480323803E8 ; 4.943360722975741E8 ; 3.9300658017857735E10 ; 37750.83999999996
107 ; 4689022.404302669 ; 4.0189191985799587E8 ; 4.990264044635472E8 ; 3.970253912266097E10 ; 38106.97999999996
108 ; 4690430.493134878 ; 4.0190272793296576E8 ; 5.037154268678499E8 ; 4.010443104251897E10 ; 38463.11999999996
109 ; 4686941.187298549 ; 4.019135283874706E8 ; 5.0840585736098474E8 ; 4.0506333770451935E10 ; 38819.25999999996
110 ; 4687856.621433393 ; 4.019243205954633E8 ; 5.130927985482833E8 ; 4.090824729883941E10 ; 39175.39999999996
111 ; 4685424.95955016 ; 4.0193510394495946E8 ; 5.1778065516971666E8 ; 4.1310171619434875E10 ; 39531.53999999996
112 ; 4686106.501775134 ; 4.019458778374963E8 ; 5.224660801292668E8 ; 4.171210672337984E10 ; 39887.67999999996
113 ; 4683586.4212462865 ; 4.019566416876162E8 ; 5.2715218663104194E8 ; 4.211405260121733E10 ; 40243.819999999956
114 ; 4680511.260021288 ; 4.0196739492237425E8 ; 5.3183577305228823E8 ; 4.2516009242904945E10 ; 40599.959999999955
115 ; 4681304.641017614 ; 4.019781369808676E8 ; 5.365162843123095E8 ; 4.291797663782732E10 ; 40956.099999999955
116 ; 4681981.027130386 ; 4.019888673137872E8 ; 5.411975889533271E8 ; 4.331995477480818E10 ; 41312.239999999954
117 ; 4675997.83312656 ; 4.019995853829888E8 ; 5.458795699804574E8 ; 4.372194364212197E10 ; 41668.379999999954
118 ; 4677064.028194912 ; 4.0201029066108346E8 ; 5.50555567813584E8 ; 4.412394322750496E10 ; 42024.51999999995
119 ; 4674667.599447905 ; 4.0202098263104695E8 ; 5.552326318417789E8 ; 4.4525953518166046E10 ; 42380.65999999995
120 ; 4673393.413508582 ; 4.020316607858461E8 ; 5.599072994412267E8 ; 4.49279745007971E10 ; 42736.79999999995
121 ; 4674076.588004256 ; 4.020423246280817E8 ; 5.645806928547353E8 ; 4.533000616158294E10 ; 43092.93999999995
122 ; 4673030.142782976 ; 4.0205297366964686E8 ; 5.692547694427395E8 ; 4.573204848621102E10 ; 43449.07999999995
123 ; 4670072.417504374 ; 4.020636074314017E8 ; 5.739277995855224E8 ; 4.613410145988067E10 ; 43805.21999999995
124 ; 4665754.586336803 ; 4.020742254428605E8 ; 5.785978720030268E8 ; 4.653616506731207E10 ; 44161.35999999995
125 ; 4663512.881490622 ; 4.020848272418936E8 ; 5.832636265893637E8 ; 4.693823929275494E10 ; 44517.49999999995
126 ; 4662241.443796844 ; 4.020954123744421E8 ; 5.879271394708543E8 ; 4.7340324119996826E10 ; 44873.63999999995
127 ; 4657012.449141391 ; 4.0210598039424455E8 ; 5.925893809146512E8 ; 4.774241953237127E10 ; 45229.77999999995
128 ; 4655303.131752692 ; 4.021165308625754E8 ; 5.972463933637925E8 ; 4.814452551276551E10 ; 45585.91999999995
129 ; 4653028.5283731595 ; 4.021270633479953E8 ; 6.019016964955453E8 ; 4.854664204362808E10 ; 45942.05999999995
130 ; 4650291.799689855 ; 4.021375774261105E8 ; 6.065547250239184E8 ; 4.8948769106976074E10 ; 46298.199999999946
131 ; 4648439.402387323 ; 4.0214807267934465E8 ; 6.112050168236083E8 ; 4.935090668440218E10 ; 46654.339999999946
132 ; 4643123.687391864 ; 4.0215854869671786E8 ; 6.158534562259957E8 ; 4.975305475708153E10 ; 47010.479999999945
133 ; 4641691.097978592 ; 4.02169005073637E8 ; 6.204965799133875E8 ; 5.0155213305778244E10 ; 47366.619999999944
134 ; 4640892.867211026 ; 4.021794414116932E8 ; 6.251382710113661E8 ; 5.055738231085188E10 ; 47722.759999999944
135 ; 4639885.661025946 ; 4.021898573184693E8 ; 6.297791638785771E8 ; 5.095956175226357E10 ; 48078.89999999994
136 ; 4637219.6423332095 ; 4.022002524073534E8 ; 6.344190495396031E8 ; 5.136175160958204E10 ; 48435.03999999994
137 ; 4635261.759257515 ; 4.0221062629736227E8 ; 6.390562691819363E8 ; 5.1763951861989395E10 ; 48791.17999999994
138 ; 4633167.066845498 ; 4.0222097861297E8 ; 6.436915309411938E8 ; 5.216616248828676E10 ; 49147.31999999994
139 ; 4629503.769891746 ; 4.02231308983945E8 ; 6.483246980080394E8 ; 5.256838346689973E10 ; 49503.45999999994
140 ; 4626902.379684281 ; 4.022416170451928E8 ; 6.529542017779311E8 ; 5.2970614775883675E10 ; 49859.59999999994
141 ; 4627497.556583192 ; 4.022519024366058E8 ; 6.575811041576154E8 ; 5.337285639292887E10 ; 50215.73999999994
142 ; 4623051.575606003 ; 4.0226216480291885E8 ; 6.622086017141986E8 ; 5.377510829536548E10 ; 50571.87999999994
143 ; 4620013.314117964 ; 4.022724037935703E8 ; 6.668316532898046E8 ; 5.4177370460168396E10 ; 50928.01999999994
144 ; 4616711.924730016 ; 4.022826190625691E8 ; 6.714516666039225E8 ; 5.457964286396197E10 ; 51284.15999999994
145 ; 4617598.9515235815 ; 4.0229281026836693E8 ; 6.760683785286525E8 ; 5.4981925483024536E10 ; 51640.29999999994
146 ; 4615090.978354493 ; 4.0230297707373554E8 ; 6.806859774801761E8 ; 5.53842182932929E10 ; 51996.43999999994
147 ; 4614142.041870304 ; 4.023131191456486E8 ; 6.853010684585305E8 ; 5.578652127036664E10 ; 52352.579999999936
148 ; 4613071.823449578 ; 4.0232323615516853E8 ; 6.899152105004009E8 ; 5.618883438951228E10 ; 52708.719999999936
149 ; 4612462.185231663 ; 4.023333277773376E8 ; 6.945282823238505E8 ; 5.659115762566745E10 ; 53064.859999999935
150 ; 4613172.563175498 ; 4.023433936910734E8 ; 6.991407445090822E8 ; 5.6993490953444786E10 ; 53420.999999999935
151 ; 4610341.522879557 ; 4.0235343357906806E8 ; 7.037539170722576E8 ; 5.739583434713586E10 ; 53777.139999999934
152 ; 4609178.904280888 ; 4.0236344712769175E8 ; 7.083642585951372E8 ; 5.779818778071493E10 ; 54133.27999999993
153 ; 4607495.416664144 ; 4.023734340268996E8 ; 7.129734374994181E8 ; 5.820055122784262E10 ; 54489.41999999993
154 ; 4605950.17437215 ; 4.0238339397014225E8 ; 7.175809329160823E8 ; 5.860292466186952E10 ; 54845.55999999993
155 ; 4604745.828927683 ; 4.0239332665428007E8 ; 7.221868830904545E8 ; 5.900530805583966E10 ; 55201.69999999993
156 ; 4606649.500728877 ; 4.024032317795E8 ; 7.267916289193821E8 ; 5.940770138249394E10 ; 55557.83999999993
157 ; 4604967.1520204935 ; 4.0241310904923654E8 ; 7.31398278420111E8 ; 5.9810104614273445E10 ; 55913.97999999993
158 ; 4605400.1880802745 ; 4.024229581700945E8 ; 7.360032455721314E8 ; 6.0212517723322685E10 ; 56270.11999999993
159 ; 4604328.341051644 ; 4.0243277885177577E8 ; 7.406086457602117E8 ; 6.061494068149278E10 ; 56626.25999999993
160 ; 4602603.042588425 ; 4.0244257080700815E8 ; 7.452129741012634E8 ; 6.101737346034456E10 ; 56982.39999999993
161 ; 4602798.575739342 ; 4.024523337514771E8 ; 7.498155771438519E8 ; 6.1419816031151566E10 ; 57338.53999999993
162 ; 4596561.83328953 ; 4.0246206740375996E8 ; 7.544183757195913E8 ; 6.1822268364903046E10 ; 57694.67999999993
163 ; 4597237.194059959 ; 4.0247177148526245E8 ; 7.590149375528808E8 ; 6.222473043230681E10 ; 58050.81999999993
164 ; 4596291.787971918 ; 4.02481445720158E8 ; 7.636121747469407E8 ; 6.262720220379207E10 ; 58406.95999999993
165 ; 4596156.251696657 ; 4.024910898353286E8 ; 7.682084665349127E8 ; 6.302968364951223E10 ; 58763.099999999926
166 ; 4591815.531334994 ; 4.025007035603086E8 ; 7.728046227866094E8 ; 6.343217473934756E10 ; 59119.239999999925
167 ; 4591414.864928055 ; 4.025102866272298E8 ; 7.773964383179444E8 ; 6.383467544290787E10 ; 59475.379999999925
168 ; 4590208.627613815 ; 4.025198387707691E8 ; 7.819878531828724E8 ; 6.4237185729535095E10 ; 59831.519999999924
169 ; 4588465.778481291 ; 4.025293597280981E8 ; 7.865780618104862E8 ; 6.463970556830586E10 ; 60187.65999999992
170 ; 4586936.584078093 ; 4.0253884923883367E8 ; 7.911665275889674E8 ; 6.504223492803396E10 ; 60543.79999999992
171 ; 4587333.14524711 ; 4.025483070449914E8 ; 7.957534641730455E8 ; 6.544477377727279E10 ; 60899.93999999992
172 ; 4584542.428584138 ; 4.0255773289094007E8 ; 8.003407973182926E8 ; 6.584732208431778E10 ; 61256.07999999992
173 ; 4584362.809638152 ; 4.025671265233582E8 ; 8.049253397468767E8 ; 6.624987981720872E10 ; 61612.21999999992
174 ; 4584059.980181401 ; 4.025764876911914E8 ; 8.095097025565149E8 ; 6.665244694373208E10 ; 61968.35999999992
175 ; 4586191.889527918 ; 4.02585816145612E8 ; 8.140937625366963E8 ; 6.705502343142327E10 ; 62324.49999999992
176 ; 4589716.609612201 ; 4.0259511163997996E8 ; 8.186799544262242E8 ; 6.7457609247568886E10 ; 62680.63999999992
177 ; 4585019.818293961 ; 4.026043739298048E8 ; 8.232696710358365E8 ; 6.786020435920886E10 ; 63036.77999999992
