CSV File for the Network on Day 242
1 - Minute m 
2 - Power Consumed at minute m 
3 - Power Produced at minute m 
4 - Energy Consumed since the beginning of the day 
5 - Energy Produced since the beginning of the day 
6 - Energy Lost since the beginning of the day 
 
0 ; 882077.4498650517 ; 2.1059438457115602E8 ; 0.0 ; 0.0 ; 0.0
1 ; 885620.0838978284 ; 2.1089830520288348E8 ; 882077.4498650517 ; 2.1059438457115602E8 ; 356.14
2 ; 889903.6902646605 ; 2.1181993395544755E8 ; 1767697.5337628801 ; 4.214926897740395E8 ; 712.28
3 ; 893803.762320661 ; 2.13359292262062E8 ; 2657601.2240275405 ; 6.333126237294871E8 ; 1068.42
4 ; 899326.4447872157 ; 2.1551640055112743E8 ; 3551404.9863482015 ; 8.46671915991549E8 ; 1424.56
5 ; 904992.7017190129 ; 2.1829127780190754E8 ; 4450731.431135417 ; 1.0621883165426764E9 ; 1780.6999999999998
6 ; 909123.3475122134 ; 2.2168394108685517E8 ; 5355724.13285443 ; 1.280479594344584E9 ; 2136.8399999999997
7 ; 910190.2963273776 ; 2.2569440512210947E8 ; 6264847.4803666435 ; 1.5021635354314392E9 ; 2492.9799999999996
8 ; 917383.1778434722 ; 2.3032268185071033E8 ; 7175037.776694021 ; 1.7278579405535486E9 ; 2849.1199999999994
9 ; 921290.3516864424 ; 2.3556878008406436E8 ; 8092420.954537493 ; 1.958180622404259E9 ; 3205.2599999999993
10 ; 924666.059504788 ; 2.414327052256195E8 ; 9013711.306223936 ; 2.193749402488323E9 ; 3561.399999999999
11 ; 926726.6138805983 ; 2.479144590964101E8 ; 9938377.365728725 ; 2.4351821077139425E9 ; 3917.539999999999
12 ; 928178.2861941993 ; 2.5501403987540174E8 ; 1.0865103979609324E7 ; 2.683096566810353E9 ; 4273.679999999999
13 ; 932303.7899434888 ; 2.627314421591465E8 ; 1.1793282265803523E7 ; 2.938110606685755E9 ; 4629.82
14 ; 939040.880390237 ; 2.710666571362379E8 ; 1.2725586055747012E7 ; 3.200842048844901E9 ; 4985.96
15 ; 941678.9208407439 ; 2.800196728636359E8 ; 1.3664626936137248E7 ; 3.471908705981139E9 ; 5342.1
16 ; 943777.8113690735 ; 2.895904746252015E8 ; 1.4606305856977992E7 ; 3.751928378844775E9 ; 5698.240000000001
17 ; 945414.1982621152 ; 2.997790453484818E8 ; 1.5550083668347064E7 ; 4.041518853469977E9 ; 6054.380000000001
18 ; 949511.6336568934 ; 3.10585366054213E8 ; 1.649549786660918E7 ; 4.341297898818459E9 ; 6410.520000000001
19 ; 954043.1897115395 ; 3.220094163139946E8 ; 1.7445009500266075E7 ; 4.651883264872671E9 ; 6766.660000000002
20 ; 955048.3286971964 ; 3.3405117469461274E8 ; 1.8399052689977616E7 ; 4.973892681186666E9 ; 7122.800000000002
21 ; 958788.1903948408 ; 3.4671061917184496E8 ; 1.9354101018674813E7 ; 5.307943855881278E9 ; 7478.940000000002
22 ; 963186.6524908236 ; 3.599877275015067E8 ; 2.0312889209069654E7 ; 5.654654475053123E9 ; 7835.080000000003
23 ; 967657.1050324783 ; 3.7388247754036754E8 ; 2.127607586156048E7 ; 6.01464220255463E9 ; 8191.220000000003
24 ; 970617.905802516 ; 3.883948475138867E8 ; 2.2243732966592956E7 ; 6.388524680094997E9 ; 8547.360000000002
25 ; 975327.0962575475 ; 4.0090089802759767E8 ; 2.321435087239547E7 ; 6.776919527608884E9 ; 8903.500000000002
26 ; 978312.4500757682 ; 4.0090770430625093E8 ; 2.418967796865302E7 ; 7.177820425636481E9 ; 9259.640000000001
27 ; 982520.3122993534 ; 4.009147853640707E8 ; 2.5167990418728787E7 ; 7.578728129942732E9 ; 9615.78
28 ; 983953.4979093433 ; 4.009221225795525E8 ; 2.615051073102814E7 ; 7.979642915306803E9 ; 9971.92
29 ; 985983.6549823422 ; 4.0092969833004713E8 ; 2.7134464228937484E7 ; 8.380565037886355E9 ; 10328.06
30 ; 991282.7469300596 ; 4.009374960126176E8 ; 2.8120447883919828E7 ; 8.781494736216402E9 ; 10684.199999999999
31 ; 992577.9664759279 ; 4.0094550004316896E8 ; 2.9111730630849887E7 ; 9.18243223222902E9 ; 11040.339999999998
32 ; 996755.4877211159 ; 4.009536958387764E8 ; 3.0104308597325813E7 ; 9.583377732272188E9 ; 11396.479999999998
33 ; 999922.5871799382 ; 4.009620697874727E8 ; 3.110106408504693E7 ; 9.984331428110964E9 ; 11752.619999999997
34 ; 1002607.022292507 ; 4.009706092090813E8 ; 3.2100986672226865E7 ; 1.0385293497898438E10 ; 12108.759999999997
35 ; 1004663.1233336647 ; 4.009793023100407E8 ; 3.310359369451937E7 ; 1.078626410710752E10 ; 12464.899999999996
36 ; 1007139.0376752361 ; 4.0098813813458663E8 ; 3.410825681785303E7 ; 1.118724340941756E10 ; 12821.039999999995
37 ; 1011437.4244197863 ; 4.0099710651414555E8 ; 3.511539585552827E7 ; 1.1588231547552147E10 ; 13177.179999999995
38 ; 1015812.0613311882 ; 4.01006198016366E8 ; 3.6126833279948056E7 ; 1.1989228654066292E10 ; 13533.319999999994
39 ; 1015493.7520346546 ; 4.0101540389484847E8 ; 3.7142645341279246E7 ; 1.2390234852082657E10 ; 13889.459999999994
40 ; 1018305.646149999 ; 4.010247160403439E8 ; 3.81581390933139E7 ; 1.2791250255977505E10 ; 14245.599999999993
41 ; 1020259.1370077484 ; 4.010341269339542E8 ; 3.91764447394639E7 ; 1.3192274972017849E10 ; 14601.739999999993
42 ; 1022096.5623424604 ; 4.010436296026828E8 ; 4.019670387647165E7 ; 1.3593309098951803E10 ; 14957.879999999992
43 ; 1023760.0970863372 ; 4.010532175775412E8 ; 4.121880043881411E7 ; 1.3994352728554485E10 ; 15314.019999999991
44 ; 1026349.6933033523 ; 4.010628848543051E8 ; 4.224256053590045E7 ; 1.4395405946132027E10 ; 15670.15999999999
45 ; 1029584.7747166635 ; 4.010726258569387E8 ; 4.3268910229203805E7 ; 1.4796468830986332E10 ; 16026.29999999999
46 ; 1032164.0487429189 ; 4.0108243540363955E8 ; 4.4298495003920466E7 ; 1.5197541456843271E10 ; 16382.43999999999
47 ; 1036714.1262797073 ; 4.0109230867542094E8 ; 4.5330659052663386E7 ; 1.559862389224691E10 ; 16738.57999999999
48 ; 1038071.7305871638 ; 4.011022411871178E8 ; 4.636737317894309E7 ; 1.599971620092233E10 ; 17094.71999999999
49 ; 1039876.8171241924 ; 4.011122287606857E8 ; 4.740544490953025E7 ; 1.640081844210945E10 ; 17450.85999999999
50 ; 1038907.7696573461 ; 4.0112226750065255E8 ; 4.844532172665445E7 ; 1.6801930670870134E10 ; 17806.99999999999
51 ; 1043030.1417372216 ; 4.011323537715789E8 ; 4.948422949631179E7 ; 1.720305293837079E10 ; 18163.13999999999
52 ; 1043190.5879683871 ; 4.0114248417738307E8 ; 5.0527259638049014E7 ; 1.760418529214237E10 ; 18519.279999999988
53 ; 1046282.1397101409 ; 4.011526555423912E8 ; 5.15704502260174E7 ; 1.800532777631975E10 ; 18875.419999999987
54 ; 1046839.9502929846 ; 4.0116286489397633E8 ; 5.2616732365727544E7 ; 1.8406480431862144E10 ; 19231.559999999987
55 ; 1046465.1346538592 ; 4.011731094466596E8 ; 5.3663572316020526E7 ; 1.8807643296756123E10 ; 19587.699999999986
56 ; 1047499.7355195633 ; 4.0118338658755165E8 ; 5.4710037450674385E7 ; 1.920881640620278E10 ; 19943.839999999986
57 ; 1050831.2891851314 ; 4.0119369386302245E8 ; 5.575753718619395E7 ; 1.9609999792790333E10 ; 20299.979999999985
58 ; 1054132.7102584213 ; 4.012040289664942E8 ; 5.680836847537908E7 ; 2.0011193486653355E10 ; 20656.119999999984
59 ; 1054627.9994087406 ; 4.0121438972726095E8 ; 5.7862501185637504E7 ; 2.041239751561985E10 ; 21012.259999999984
60 ; 1058244.244552406 ; 4.0122477410024536E8 ; 5.891712918504624E7 ; 2.081361190534711E10 ; 21368.399999999983
61 ; 1059948.162488595 ; 4.012351801566108E8 ; 5.9975373429598644E7 ; 2.1214836679447357E10 ; 21724.539999999983
62 ; 1060061.55562227 ; 4.012456060751537E8 ; 6.103532159208724E7 ; 2.161607185960397E10 ; 22080.679999999982
63 ; 1061631.2301963582 ; 4.012560501344081E8 ; 6.209538314770951E7 ; 2.2017317465679123E10 ; 22436.81999999998
64 ; 1062125.934909619 ; 4.0126651070539856E8 ; 6.315701437790587E7 ; 2.241857351581353E10 ; 22792.95999999998
65 ; 1067900.7854282008 ; 4.012769862449858E8 ; 6.421914031281549E7 ; 2.281984002651893E10 ; 23149.09999999998
66 ; 1069045.7370251496 ; 4.0128747528975207E8 ; 6.528704109824369E7 ; 2.3221117012763916E10 ; 23505.23999999998
67 ; 1067575.3349841346 ; 4.012979764503794E8 ; 6.635608683526884E7 ; 2.362240448805367E10 ; 23861.37999999998
68 ; 1070948.752811552 ; 4.013084884064775E8 ; 6.742366217025298E7 ; 2.4023702464504047E10 ; 24217.51999999998
69 ; 1071630.750306871 ; 4.0131900990182257E8 ; 6.849461092306453E7 ; 2.4425010952910526E10 ; 24573.659999999978
70 ; 1072305.4398086949 ; 4.013295397399707E8 ; 6.95662416733714E7 ; 2.4826329962812347E10 ; 24929.799999999977
71 ; 1074465.844729859 ; 4.0134007678021455E8 ; 7.06385471131801E7 ; 2.522765950255232E10 ; 25285.939999999977
72 ; 1076479.3540387454 ; 4.013506199338531E8 ; 7.171301295790996E7 ; 2.5628999579332535E10 ; 25642.079999999976
73 ; 1076276.3173605604 ; 4.0136116816074824E8 ; 7.27894923119487E7 ; 2.6030350199266388E10 ; 25998.219999999976
74 ; 1076672.4092612576 ; 4.013717204661438E8 ; 7.386576862930927E7 ; 2.6431711367427135E10 ; 26354.359999999975
75 ; 1076671.7841867828 ; 4.013822758977245E8 ; 7.494244103857052E7 ; 2.683308308789328E10 ; 26710.499999999975
76 ; 1079050.3932112907 ; 4.013928335428962E8 ; 7.60191128227573E7 ; 2.7234465363791004E10 ; 27066.639999999974
77 ; 1078187.5202306323 ; 4.0140339252626663E8 ; 7.70981632159686E7 ; 2.76358581973339E10 ; 27422.779999999973
78 ; 1082372.315599436 ; 4.0141395200731283E8 ; 7.817635073619923E7 ; 2.803726158986017E10 ; 27778.919999999973
79 ; 1080452.2220160095 ; 4.01424511178218E8 ; 7.925872305179867E7 ; 2.843867554186748E10 ; 28135.059999999972
80 ; 1081290.400453587 ; 4.014350692618648E8 ; 8.033917527381468E7 ; 2.88401000530457E10 ; 28491.19999999997
81 ; 1084642.617162494 ; 4.0144562550997263E8 ; 8.142046567426826E7 ; 2.9241535122307564E10 ; 28847.33999999997
82 ; 1085184.574830821 ; 4.0145617920136714E8 ; 8.250510829143076E7 ; 2.9642980747817535E10 ; 29203.47999999997
83 ; 1085311.0462493747 ; 4.014667296403712E8 ; 8.359029286626157E7 ; 3.00444369270189E10 ; 29559.61999999997
84 ; 1088565.0732088725 ; 4.014772761553085E8 ; 8.467560391251095E7 ; 3.044590365665927E10 ; 29915.75999999997
85 ; 1089590.090766151 ; 4.014878180971101E8 ; 8.576416898571981E7 ; 3.084738093281458E10 ; 30271.89999999997
86 ; 1089895.2772445187 ; 4.014983548380171E8 ; 8.685375907648596E7 ; 3.124886875091169E10 ; 30628.039999999968
87 ; 1089778.2885102984 ; 4.015088857703706E8 ; 8.794365435373048E7 ; 3.1650367105749706E10 ; 30984.179999999968
88 ; 1093038.280468874 ; 4.0151941030548376E8 ; 8.903343264224078E7 ; 3.2051875991520077E10 ; 31340.319999999967
89 ; 1093701.744755698 ; 4.015299278725883E8 ; 9.012647092270966E7 ; 3.245339540182556E10 ; 31696.459999999966
90 ; 1090319.8799872869 ; 4.015404379178517E8 ; 9.122017266746536E7 ; 3.285492532969815E10 ; 32052.599999999966
91 ; 1094102.1015955445 ; 4.0155093990345746E8 ; 9.231049254745264E7 ; 3.3256465767616E10 ; 32408.739999999965
92 ; 1093958.74534734 ; 4.0156143330674654E8 ; 9.34045946490482E7 ; 3.365801670751946E10 ; 32764.879999999965
93 ; 1095418.0323912448 ; 4.0157191761941266E8 ; 9.449855339439553E7 ; 3.4059578140826206E10 ; 33121.01999999997
94 ; 1095012.4658344456 ; 4.015823923467501E8 ; 9.559397142678678E7 ; 3.446115005844562E10 ; 33477.15999999997
95 ; 1097260.6688271353 ; 4.015928570069481E8 ; 9.668898389262122E7 ; 3.4862732450792366E10 ; 33833.29999999997
96 ; 1095798.1457569704 ; 4.0160331113043046E8 ; 9.778624456144835E7 ; 3.526432530779932E10 ; 34189.439999999966
97 ; 1097665.2867609954 ; 4.016137542592355E8 ; 9.888204270720533E7 ; 3.566592861892975E10 ; 34545.579999999965
98 ; 1099400.3654678366 ; 4.016241859464345E8 ; 9.997970799396633E7 ; 3.606754237318899E10 ; 34901.719999999965
99 ; 1099242.470810435 ; 4.0163460575558585E8 ; 1.0107910835943416E8 ; 3.646916655913542E10 ; 35257.859999999964
100 ; 1099032.4365820498 ; 4.0164501326022184E8 ; 1.0217835083024459E8 ; 3.687080116489101E10 ; 35613.99999999996
101 ; 1099204.5667763427 ; 4.016554080433668E8 ; 1.0327738326682663E8 ; 3.727244617815123E10 ; 35970.13999999996
102 ; 1099838.720754808 ; 4.0166578969708383E8 ; 1.0437658783360296E8 ; 3.7674101586194595E10 ; 36326.27999999996
103 ; 1102571.1227869727 ; 4.0167615782204807E8 ; 1.0547642655435777E8 ; 3.807576737589168E10 ; 36682.41999999996
104 ; 1103121.1108711094 ; 4.016865120271454E8 ; 1.0657899767714474E8 ; 3.847744353371372E10 ; 37038.55999999996
105 ; 1102142.2147760955 ; 4.0169685192909414E8 ; 1.0768211878801584E8 ; 3.887913004574087E10 ; 37394.69999999996
106 ; 1105414.707227561 ; 4.017071771520889E8 ; 1.0878426100279194E8 ; 3.928082689766996E10 ; 37750.83999999996
107 ; 1102733.169421919 ; 4.017174873274645E8 ; 1.098896757100195E8 ; 3.968253407482205E10 ; 38106.97999999996
108 ; 1102439.8299553255 ; 4.017277820933795E8 ; 1.1099240887944143E8 ; 4.008425156214951E10 ; 38463.11999999996
109 ; 1104073.3490523794 ; 4.0173806109451675E8 ; 1.1209484870939675E8 ; 4.048597934424289E10 ; 38819.25999999996
110 ; 1101967.3133160009 ; 4.0174832398180175E8 ; 1.1319892205844913E8 ; 4.08877174053374E10 ; 39175.39999999996
111 ; 1104307.1400230494 ; 4.017585704121357E8 ; 1.1430088937176514E8 ; 4.128946572931921E10 ; 39531.53999999996
112 ; 1106985.9099851432 ; 4.0176880004814374E8 ; 1.1540519651178819E8 ; 4.169122429973134E10 ; 39887.67999999996
113 ; 1104857.735774756 ; 4.01779012557937E8 ; 1.1651218242177333E8 ; 4.209299309977948E10 ; 40243.819999999956
114 ; 1103673.2889313956 ; 4.017892076148874E8 ; 1.1761704015754808E8 ; 4.249477211233742E10 ; 40599.959999999955
115 ; 1106417.8591412008 ; 4.0179938489741457E8 ; 1.1872071344647948E8 ; 4.289656131995231E10 ; 40956.099999999955
116 ; 1105511.484510107 ; 4.0180954408878446E8 ; 1.1982713130562069E8 ; 4.3298360704849724E10 ; 41312.239999999954
117 ; 1105057.9694586548 ; 4.01819684876918E8 ; 1.209326427901308E8 ; 4.370017024893851E10 ; 41668.379999999954
118 ; 1105538.4414945326 ; 4.01829806954211E8 ; 1.2203770075958945E8 ; 4.410198993381542E10 ; 42024.51999999995
119 ; 1105927.3141467103 ; 4.018399100173622E8 ; 1.2314323920108399E8 ; 4.450381974076963E10 ; 42380.65999999995
120 ; 1103885.396064018 ; 4.018499937672111E8 ; 1.242491665152307E8 ; 4.4905659650786995E10 ; 42736.79999999995
121 ; 1108409.7371935155 ; 4.018600579085839E8 ; 1.2535305191129471E8 ; 4.530750964455421E10 ; 43092.93999999995
122 ; 1107768.4566511633 ; 4.018701021501477E8 ; 1.2646146164848822E8 ; 4.570936970246279E10 ; 43449.07999999995
123 ; 1106673.7158921876 ; 4.018801262042711E8 ; 1.2756923010513939E8 ; 4.611123980461294E10 ; 43805.21999999995
124 ; 1106321.008355832 ; 4.018901297868935E8 ; 1.2867590382103157E8 ; 4.651311993081721E10 ; 44161.35999999995
125 ; 1102068.9084804577 ; 4.0190011261739945E8 ; 1.297822248293874E8 ; 4.69150100606041E10 ; 44517.49999999995
126 ; 1102472.8561428774 ; 4.019100744185002E8 ; 1.3088429373786785E8 ; 4.7316910173221504E10 ; 44873.63999999995
127 ; 1101666.0340273841 ; 4.0192001491612077E8 ; 1.3198676659401073E8 ; 4.771882024764001E10 ; 45229.77999999995
128 ; 1101133.4927453112 ; 4.019299338392929E8 ; 1.3308843262803811E8 ; 4.812074026255613E10 ; 45585.91999999995
129 ; 1098357.2257070197 ; 4.019398309200527E8 ; 1.3418956612078342E8 ; 4.8522670196395424E10 ; 45942.05999999995
130 ; 1099285.090665367 ; 4.0194970589334404E8 ; 1.3528792334649044E8 ; 4.8924610027315475E10 ; 46298.199999999946
131 ; 1097777.4766060384 ; 4.019595584969262E8 ; 1.363872084371558E8 ; 4.932655973320882E10 ; 46654.339999999946
132 ; 1096982.0951210458 ; 4.019693884712858E8 ; 1.3748498591376185E8 ; 4.972851929170574E10 ; 47010.479999999945
133 ; 1095346.7637780104 ; 4.019791955595536E8 ; 1.385819680088829E8 ; 5.0130488680177025E10 ; 47366.619999999944
134 ; 1095005.0500870026 ; 4.019889795074244E8 ; 1.396773147726609E8 ; 5.053246787573658E10 ; 47722.759999999944
135 ; 1094702.464724821 ; 4.0199874006308174E8 ; 1.4077231982274792E8 ; 5.0934456855244E10 ; 48078.89999999994
136 ; 1094497.8591398823 ; 4.020084769771253E8 ; 1.4186702228747272E8 ; 5.133645559530708E10 ; 48435.03999999994
137 ; 1095343.4567063649 ; 4.020181900025022E8 ; 1.429615201466126E8 ; 5.173846407228421E10 ; 48791.17999999994
138 ; 1095124.527193058 ; 4.020278788944415E8 ; 1.44056863603319E8 ; 5.214048226228671E10 ; 49147.31999999994
139 ; 1093790.5717717817 ; 4.020375434103913E8 ; 1.4515198813051206E8 ; 5.254251014118115E10 ; 49503.45999999994
140 ; 1093777.662186481 ; 4.020471833099594E8 ; 1.4624577870228383E8 ; 5.2944547684591545E10 ; 49859.59999999994
141 ; 1092179.6465243197 ; 4.020567983548564E8 ; 1.473395563644703E8 ; 5.3346594867901505E10 ; 50215.73999999994
142 ; 1092122.9034211463 ; 4.02066388308841E8 ; 1.484317360109946E8 ; 5.374865166625636E10 ; 50571.87999999994
143 ; 1088670.1679814367 ; 4.020759529376688E8 ; 1.4952385891441575E8 ; 5.41507180545652E10 ; 50928.01999999994
144 ; 1089484.059058996 ; 4.020854920090425E8 ; 1.506125290823972E8 ; 5.455279400750287E10 ; 51284.15999999994
145 ; 1091153.035423962 ; 4.020950052925645E8 ; 1.517020131414562E8 ; 5.495487949951191E10 ; 51640.29999999994
146 ; 1091232.0459989745 ; 4.0210449255969226E8 ; 1.5279316617688015E8 ; 5.5356974504804474E10 ; 51996.43999999994
147 ; 1092584.3467125564 ; 4.0211395358369505E8 ; 1.538843982228791E8 ; 5.575907899736417E10 ; 52352.579999999936
148 ; 1094313.9987814059 ; 4.021233881396127E8 ; 1.5497698256959167E8 ; 5.616119295094786E10 ; 52708.719999999936
149 ; 1095835.9069219371 ; 4.021327960042166E8 ; 1.5607129656837308E8 ; 5.656331633908747E10 ; 53064.859999999935
150 ; 1095893.6471269284 ; 4.0214217695597196E8 ; 1.57167132475295E8 ; 5.696544913509169E10 ; 53420.999999999935
151 ; 1096100.9443207218 ; 4.02151530775002E8 ; 1.5826302612242195E8 ; 5.736759131204766E10 ; 53777.139999999934
152 ; 1096250.5697574322 ; 4.0216085724305373E8 ; 1.5935912706674266E8 ; 5.776974284282266E10 ; 54133.27999999993
153 ; 1098179.1274567298 ; 4.0217015614346504E8 ; 1.604553776365001E8 ; 5.817190370006572E10 ; 54489.41999999993
154 ; 1097780.1451192214 ; 4.0217942726113343E8 ; 1.6155355676395682E8 ; 5.857407385620918E10 ; 54845.55999999993
155 ; 1102059.427827917 ; 4.0218867038248634E8 ; 1.6265133690907604E8 ; 5.8976253283470314E10 ; 55201.69999999993
156 ; 1104158.9971037668 ; 4.02197885295452E8 ; 1.6375339633690396E8 ; 5.93784419538528E10 ; 55557.83999999993
157 ; 1105214.253792039 ; 4.022070717894323E8 ; 1.6485755533400774E8 ; 5.978063983914825E10 ; 55913.97999999993
158 ; 1103518.1073583076 ; 4.0221622965527666E8 ; 1.659627695877998E8 ; 6.0182846910937675E10 ; 56270.11999999993
159 ; 1104694.8079093865 ; 4.022253586852569E8 ; 1.670662876951581E8 ; 6.058506314059295E10 ; 56626.25999999993
160 ; 1106366.453670846 ; 4.0223445867304313E8 ; 1.681709825030675E8 ; 6.0987288499278206E10 ; 56982.39999999993
161 ; 1106078.447076117 ; 4.0224352941368103E8 ; 1.6927734895673835E8 ; 6.138952295795125E10 ; 57338.53999999993
162 ; 1108557.1751961072 ; 4.0225257070356965E8 ; 1.7038342740381446E8 ; 6.179176648736493E10 ; 57694.67999999993
163 ; 1107685.55803649 ; 4.0226158234044075E8 ; 1.7149198457901058E8 ; 6.21940190580685E10 ; 58050.81999999993
164 ; 1111324.472146088 ; 4.0227056412333834E8 ; 1.7259967013704705E8 ; 6.2596280640408936E10 ; 58406.95999999993
165 ; 1107456.7232158077 ; 4.022795158525996E8 ; 1.7371099460919315E8 ; 6.299855120453227E10 ; 58763.099999999926
166 ; 1111981.2333044794 ; 4.022884373298368E8 ; 1.7481845133240896E8 ; 6.340083072038487E10 ; 59119.239999999925
167 ; 1111547.938606806 ; 4.02297328357919E8 ; 1.7593043256571344E8 ; 6.380311915771471E10 ; 59475.379999999925
168 ; 1111020.7314760643 ; 4.023061887409557E8 ; 1.7704198050432023E8 ; 6.4205416486072624E10 ; 59831.519999999924
169 ; 1112657.6337528676 ; 4.0231501828428066E8 ; 1.781530012357963E8 ; 6.460772267481358E10 ; 60187.65999999992
170 ; 1113617.5998521002 ; 4.023238167944364E8 ; 1.7926565886954916E8 ; 6.501003769309786E10 ; 60543.79999999992
171 ; 1115802.016579646 ; 4.023325840791594E8 ; 1.8037927646940127E8 ; 6.5412361509892296E10 ; 60899.93999999992
172 ; 1114550.4135731892 ; 4.0234131994736576E8 ; 1.8149507848598093E8 ; 6.581469409397146E10 ; 61256.07999999992
173 ; 1117493.6182243987 ; 4.023500242091384E8 ; 1.826096288995541E8 ; 6.621703541391882E10 ; 61612.21999999992
174 ; 1118447.6646868766 ; 4.0235869667571306E8 ; 1.8372712251777852E8 ; 6.661938543812796E10 ; 61968.35999999992
175 ; 1117922.1010343158 ; 4.023673371594668E8 ; 1.848455701824654E8 ; 6.702174413480367E10 ; 62324.49999999992
176 ; 1120480.3067137245 ; 4.0237594547390574E8 ; 1.8596349228349972E8 ; 6.742411147196314E10 ; 62680.63999999992
