CSV File for the Network on Day 37
1 - Minute m 
2 - Power Consumed at minute m 
3 - Power Produced at minute m 
4 - Energy Consumed since the beginning of the day 
5 - Energy Produced since the beginning of the day 
6 - Energy Lost since the beginning of the day 
 
0 ; 4534756.617503023 ; 2.1062577922260264E8 ; 0.0 ; 0.0 ; 0.0
1 ; 4538679.6455941005 ; 2.1093009908617696E8 ; 4534756.617503023 ; 2.1062577922260264E8 ; 356.14
2 ; 4542813.191281196 ; 2.1185210332366124E8 ; 9073436.263097122 ; 4.215558783087796E8 ; 712.28
3 ; 4545823.526678341 ; 2.1339180838977018E8 ; 1.3616249454378318E7 ; 6.334079816324408E8 ; 1068.42
4 ; 4551997.848809899 ; 2.155492297425969E8 ; 1.816207298105666E7 ; 8.46799790022211E8 ; 1424.56
5 ; 4556579.332948094 ; 2.183243815533035E8 ; 2.271407082986656E7 ; 1.0623490197648078E9 ; 1780.6999999999998
6 ; 4561100.564395779 ; 2.2171727641738078E8 ; 2.7270650162814654E7 ; 1.2806734013181114E9 ; 2136.8399999999997
7 ; 4563664.505086837 ; 2.257279250795144E8 ; 3.1831750727210432E7 ; 1.5023906777354922E9 ; 2492.9799999999996
8 ; 4568484.248023159 ; 2.3035633618489447E8 ; 3.639541523229727E7 ; 1.7281186028150067E9 ; 2849.1199999999994
9 ; 4572745.607789102 ; 2.356025160696449E8 ; 4.096389948032043E7 ; 1.9584749389999013E9 ; 3205.2599999999993
10 ; 4573625.212442703 ; 2.414664686018065E8 ; 4.553664508810953E7 ; 2.194077455069546E9 ; 3561.399999999999
11 ; 4578015.666763771 ; 2.4794819508199063E8 ; 5.0110270300552234E7 ; 2.435543923671353E9 ; 3917.539999999999
12 ; 4581870.780643578 ; 2.5504769420958588E8 ; 5.4688285967316E7 ; 2.6834921187533436E9 ; 4273.679999999999
13 ; 4584291.808362608 ; 2.6276496211655143E8 ; 5.927015674795958E7 ; 2.9385398129629292E9 ; 4629.82
14 ; 4589060.287024585 ; 2.710999924667636E8 ; 6.385444855632219E7 ; 3.2013047750794806E9 ; 4985.96
15 ; 4592084.163682159 ; 2.800527766150319E8 ; 6.844350884334677E7 ; 3.472404767546244E9 ; 5342.1
16 ; 4594966.312194228 ; 2.89623303816671E8 ; 7.303559300702894E7 ; 3.752457544161276E9 ; 5698.240000000001
17 ; 4597199.612729835 ; 2.9981156147619E8 ; 7.763055931922317E7 ; 4.0420808479779468E9 ; 6054.380000000001
18 ; 4599479.8871815475 ; 3.106175354224267E8 ; 8.2227758931953E7 ; 4.341892409454137E9 ; 6410.520000000001
19 ; 4604604.390171137 ; 3.220412101972881E8 ; 8.682723881913455E7 ; 4.652509944876564E9 ; 6766.660000000002
20 ; 4608343.063153777 ; 3.340825693460594E8 ; 9.143184320930569E7 ; 4.974551155073853E9 ; 7122.800000000002
21 ; 4611053.804989986 ; 3.467415956987846E8 ; 9.604018627245946E7 ; 5.308633724419912E9 ; 7478.940000000002
22 ; 4613827.670063775 ; 3.6001827163423187E8 ; 1.0065124007744944E8 ; 5.655375320118697E9 ; 7835.080000000003
23 ; 4618413.887936878 ; 3.73912579320182E8 ; 1.0526506774751322E8 ; 6.015393591752929E9 ; 8191.220000000003
24 ; 4622935.965014321 ; 3.8842450092597806E8 ; 1.098834816354501E8 ; 6.389306171073111E9 ; 8547.360000000002
25 ; 4621471.947331719 ; 4.009301006016493E8 ; 1.1450641760046442E8 ; 6.777730671999088E9 ; 8903.500000000002
26 ; 4629180.261084473 ; 4.0093645670430756E8 ; 1.1912788954779613E8 ; 7.178660772600738E9 ; 9259.640000000001
27 ; 4631040.7650790885 ; 4.009430909713889E8 ; 1.237570698088806E8 ; 7.579597229305045E9 ; 9615.78
28 ; 4631993.519004036 ; 4.009499871104123E8 ; 1.2838811057395968E8 ; 7.980540320276434E9 ; 9971.92
29 ; 4632829.523848996 ; 4.009571294570505E8 ; 1.3302010409296371E8 ; 8.381490307386847E9 ; 10328.06
30 ; 4637360.50870049 ; 4.0096450302500516E8 ; 1.376529336168127E8 ; 8.782447436843897E9 ; 10684.199999999999
31 ; 4640673.385727973 ; 4.0097209353722286E8 ; 1.422902941255132E8 ; 9.183411939868902E9 ; 11040.339999999998
32 ; 4642740.861900697 ; 4.009798874414382E8 ; 1.4693096751124117E8 ; 9.584384033406124E9 ; 11396.479999999998
33 ; 4646205.204617768 ; 4.0098787191285324E8 ; 1.5157370837314186E8 ; 9.985363920847563E9 ; 11752.619999999997
34 ; 4648795.9966417365 ; 4.009960348465113E8 ; 1.5621991357775962E8 ; 1.0386351792760416E10 ; 12108.759999999997
35 ; 4648941.576122505 ; 4.010043648416289E8 ; 1.6086870957440135E8 ; 1.0787347827606928E10 ; 12464.899999999996
36 ; 4652230.102606286 ; 4.0101285117984986E8 ; 1.6551765115052384E8 ; 1.1188352192448557E10 ; 12821.039999999995
37 ; 4655669.969531821 ; 4.0102148379908514E8 ; 1.7016988125313014E8 ; 1.1589365043628407E10 ; 13177.179999999995
38 ; 4656018.603631778 ; 4.0103025326432616E8 ; 1.7482555122266197E8 ; 1.1990386527427492E10 ; 13533.319999999994
39 ; 4659519.817559567 ; 4.0103915073656464E8 ; 1.7948156982629374E8 ; 1.2391416780691818E10 ; 13889.459999999994
40 ; 4661805.655746444 ; 4.0104816794073254E8 ; 1.841410896438533E8 ; 1.2792455931428383E10 ; 14245.599999999993
41 ; 4663670.44895396 ; 4.010572971333805E8 ; 1.8880289529959974E8 ; 1.3193504099369116E10 ; 14601.739999999993
42 ; 4665817.951975171 ; 4.010665310706501E8 ; 1.934665657485537E8 ; 1.3594561396502497E10 ; 14957.879999999992
43 ; 4665982.968402695 ; 4.010758629769602E8 ; 1.9813238370052886E8 ; 1.3995627927573147E10 ; 15314.019999999991
44 ; 4667799.279466599 ; 4.010852865147125E8 ; 2.0279836666893154E8 ; 1.4396703790550106E10 ; 15670.15999999999
45 ; 4669644.083690793 ; 4.010947957552331E8 ; 2.0746616594839814E8 ; 1.479778907706482E10 ; 16026.29999999999
46 ; 4671592.301761996 ; 4.011043851510897E8 ; 2.1213581003208894E8 ; 1.5198883872820053E10 ; 16382.43999999999
47 ; 4673396.088931465 ; 4.0111404950987035E8 ; 2.1680740233385092E8 ; 1.5599988257971144E10 ; 16738.57999999999
48 ; 4676441.9003863605 ; 4.0112378396946096E8 ; 2.214807984227824E8 ; 1.6001102307481014E10 ; 17094.71999999999
49 ; 4678310.026679087 ; 4.011335839748266E8 ; 2.2615724032316875E8 ; 1.6402226091450476E10 ; 17450.85999999999
50 ; 4679138.321528633 ; 4.011434452562748E8 ; 2.3083555034984785E8 ; 1.6803359675425303E10 ; 17806.99999999999
51 ; 4678064.478045643 ; 4.011533638091595E8 ; 2.355146886713765E8 ; 1.7204503120681576E10 ; 18163.13999999999
52 ; 4679862.338247917 ; 4.011633358749725E8 ; 2.4019275314942214E8 ; 1.7605656484490734E10 ; 18519.279999999988
53 ; 4679728.592985673 ; 4.0117335792375886E8 ; 2.4487261548767006E8 ; 1.8006819820365707E10 ; 18875.419999999987
54 ; 4681359.283224933 ; 4.011834266377876E8 ; 2.4955234408065572E8 ; 1.8407993178289467E10 ; 19231.559999999987
55 ; 4681505.082673517 ; 4.011935388964064E8 ; 2.5423370336388066E8 ; 1.8809176604927254E10 ; 19587.699999999986
56 ; 4681259.836670209 ; 4.012036917620078E8 ; 2.5891520844655418E8 ; 1.921037014382366E10 ; 19943.839999999986
57 ; 4680683.906625941 ; 4.0121388246703416E8 ; 2.635964682832244E8 ; 1.961157383558567E10 ; 20299.979999999985
58 ; 4683543.929110345 ; 4.01224108401953E8 ; 2.6827715218985033E8 ; 2.0012787718052704E10 ; 20656.119999999984
59 ; 4685236.4881021725 ; 4.0123436710413283E8 ; 2.729606961189607E8 ; 2.041401182645466E10 ; 21012.259999999984
60 ; 4687040.707003873 ; 4.0124465624755657E8 ; 2.776459326070629E8 ; 2.0815246193558792E10 ; 21368.399999999983
61 ; 4689059.00784086 ; 4.012549736333097E8 ; 2.8233297331406677E8 ; 2.1216490849806347E10 ; 21724.539999999983
62 ; 4688118.821017643 ; 4.01265317180786E8 ; 2.8702203232190764E8 ; 2.1617745823439655E10 ; 22080.679999999982
63 ; 4689043.3109109085 ; 4.0127568491955626E8 ; 2.9171015114292526E8 ; 2.201901114062044E10 ; 22436.81999999998
64 ; 4688187.105845842 ; 4.0128607498184955E8 ; 2.9639919445383614E8 ; 2.2420286825539997E10 ; 22792.95999999998
65 ; 4689625.539842691 ; 4.0129648559559846E8 ; 3.01087381559682E8 ; 2.2821572900521847E10 ; 23149.09999999998
66 ; 4689848.118194841 ; 4.0130691507800645E8 ; 3.057770070995247E8 ; 2.3222869386117447E10 ; 23505.23999999998
67 ; 4692661.769701042 ; 4.0131736182959425E8 ; 3.104668552177195E8 ; 2.3624176301195454E10 ; 23861.37999999998
68 ; 4692131.737053234 ; 4.0132782432868975E8 ; 3.1515951698742056E8 ; 2.4025493663025047E10 ; 24217.51999999998
69 ; 4692755.042537004 ; 4.01338301126325E8 ; 3.198516487244738E8 ; 2.4426821487353737E10 ; 24573.659999999978
70 ; 4693162.369291131 ; 4.013487908415092E8 ; 3.245444037670108E8 ; 2.482815978848006E10 ; 24929.799999999977
71 ; 4694007.282823569 ; 4.01359292156848E8 ; 3.2923756613630193E8 ; 2.522950857932157E10 ; 25285.939999999977
72 ; 4692792.596328653 ; 4.01369803814481E8 ; 3.339315734191255E8 ; 2.563086787147842E10 ; 25642.079999999976
73 ; 4693744.350763491 ; 4.013803246123143E8 ; 3.386243660154542E8 ; 2.60322376752929E10 ; 25998.219999999976
74 ; 4693183.221679238 ; 4.0139085340052307E8 ; 3.433181103662177E8 ; 2.6433617999905216E10 ; 26354.359999999975
75 ; 4692848.410872158 ; 4.014013890783046E8 ; 3.480112935878969E8 ; 2.683500885330574E10 ; 26710.499999999975
76 ; 4694947.957544069 ; 4.014119305908611E8 ; 3.5270414199876904E8 ; 2.7236410242384045E10 ; 27066.639999999974
77 ; 4692565.329439048 ; 4.014224769265955E8 ; 3.5739908995631313E8 ; 2.7637822172974907E10 ; 27422.779999999973
78 ; 4692202.25622295 ; 4.014330271145038E8 ; 3.620916552857522E8 ; 2.80392446499015E10 ; 27778.919999999973
79 ; 4692083.613831846 ; 4.014435802217474E8 ; 3.6678385754197514E8 ; 2.8440677677016003E10 ; 28135.059999999972
80 ; 4692992.488246981 ; 4.014541353513939E8 ; 3.7147594115580696E8 ; 2.884212125723775E10 ; 28491.19999999997
81 ; 4691137.85900562 ; 4.0146469164031196E8 ; 3.7616893364405394E8 ; 2.9243575392589146E10 ; 28847.33999999997
82 ; 4691229.146264492 ; 4.014752482572093E8 ; 3.8086007150305957E8 ; 2.9645040084229458E10 ; 29203.47999999997
83 ; 4690909.226915717 ; 4.014858044008027E8 ; 3.8555130064932406E8 ; 3.0046515332486668E10 ; 29559.61999999997
84 ; 4692720.740548961 ; 4.0149635929811037E8 ; 3.902422098762398E8 ; 3.044800113688747E10 ; 29915.75999999997
85 ; 4693498.871206977 ; 4.015069122028582E8 ; 3.9493493061678874E8 ; 3.084949749618558E10 ; 30271.89999999997
86 ; 4694022.493682559 ; 4.015174623939899E8 ; 3.9962842948799574E8 ; 3.125100440838844E10 ; 30628.039999999968
87 ; 4692328.803648056 ; 4.015280091742754E8 ; 4.043224519816783E8 ; 3.165252187078243E10 ; 30984.179999999968
88 ; 4689692.9427609695 ; 4.015385518690089E8 ; 4.0901478078532636E8 ; 3.2054049879956703E10 ; 31340.319999999967
89 ; 4689273.778837418 ; 4.015490898247907E8 ; 4.137044737280873E8 ; 3.245558843182571E10 ; 31696.459999999966
90 ; 4691377.594103568 ; 4.015596224083869E8 ; 4.1839374750692475E8 ; 3.28571375216505E10 ; 32052.599999999966
91 ; 4687847.867696352 ; 4.0157014900566083E8 ; 4.230851251010283E8 ; 3.3258697144058887E10 ; 32408.739999999965
92 ; 4688280.409926747 ; 4.015806690205722E8 ; 4.2777297296872467E8 ; 3.366026729306455E10 ; 32764.879999999965
93 ; 4687458.712692894 ; 4.0159118187423795E8 ; 4.3246125337865144E8 ; 3.406184796208512E10 ; 33121.01999999997
94 ; 4685722.251215451 ; 4.016016870040515E8 ; 4.3714871209134436E8 ; 3.446343914395936E10 ; 33477.15999999997
95 ; 4684144.237143241 ; 4.016121838628558E8 ; 4.418344343425598E8 ; 3.486504083096341E10 ; 33833.29999999997
96 ; 4684915.999789958 ; 4.0162267191816676E8 ; 4.4651857857970303E8 ; 3.526665301482626E10 ; 34189.439999999966
97 ; 4683115.170311983 ; 4.0163315065144354E8 ; 4.51203494579493E8 ; 3.566827568674443E10 ; 34545.579999999965
98 ; 4682251.980646007 ; 4.016436195574024E8 ; 4.55886609749805E8 ; 3.6069908837395874E10 ; 34901.719999999965
99 ; 4681681.360332604 ; 4.016540781433712E8 ; 4.60568861730451E8 ; 3.647155245695328E10 ; 35257.859999999964
100 ; 4680907.055023207 ; 4.016645259286829E8 ; 4.652505430907836E8 ; 3.687320653509665E10 ; 35613.99999999996
101 ; 4681491.612347745 ; 4.0167496244410264E8 ; 4.699314501458068E8 ; 3.727487106102533E10 ; 35970.13999999996
102 ; 4679722.844253001 ; 4.0168538723129E8 ; 4.746129417581545E8 ; 3.767654602346943E10 ; 36326.27999999996
103 ; 4679130.349393149 ; 4.016957998422909E8 ; 4.792926646024075E8 ; 3.807823141070072E10 ; 36682.41999999996
104 ; 4676350.423436156 ; 4.0170619983905953E8 ; 4.8397179495180064E8 ; 3.8479927210543015E10 ; 37038.55999999996
105 ; 4675264.273157142 ; 4.017165867930064E8 ; 4.886481453752368E8 ; 3.888163341038207E10 ; 37394.69999999996
106 ; 4675967.086319989 ; 4.017269602845726E8 ; 4.933234096483939E8 ; 3.928334999717508E10 ; 37750.83999999996
107 ; 4674942.496061503 ; 4.017373199028274E8 ; 4.979993767347139E8 ; 3.9685076957459656E10 ; 38106.97999999996
108 ; 4673037.515273855 ; 4.017476652450885E8 ; 5.026743192307754E8 ; 4.008681427736248E10 ; 38463.11999999996
109 ; 4671777.956794814 ; 4.017579959165629E8 ; 5.073473567460493E8 ; 4.048856194260757E10 ; 38819.25999999996
110 ; 4669572.284253416 ; 4.0176831153000754E8 ; 5.120191347028441E8 ; 4.089031993852413E10 ; 39175.39999999996
111 ; 4668983.134681063 ; 4.017786117054082E8 ; 5.166887069870975E8 ; 4.129208825005414E10 ; 39531.53999999996
112 ; 4667480.056240338 ; 4.0178889606967604E8 ; 5.2135769012177855E8 ; 4.1693866861759544E10 ; 39887.67999999996
113 ; 4666743.102114087 ; 4.017991642563599E8 ; 5.2602517017801887E8 ; 4.209565575782922E10 ; 40243.819999999956
114 ; 4663231.79030791 ; 4.0180941590537405E8 ; 5.3069191328013295E8 ; 4.249745492208559E10 ; 40599.959999999955
115 ; 4662761.847106867 ; 4.0181965066274077E8 ; 5.353551450704409E8 ; 4.289926433799096E10 ; 40956.099999999955
116 ; 4661619.807046455 ; 4.018298681803455E8 ; 5.400179069175477E8 ; 4.33010839886537E10 ; 41312.239999999954
117 ; 4660904.003258232 ; 4.018400681157054E8 ; 5.446795267245941E8 ; 4.3702913856834045E10 ; 41668.379999999954
118 ; 4657208.045529066 ; 4.0185025013174975E8 ; 5.493404307278523E8 ; 4.410475392494975E10 ; 42024.51999999995
119 ; 4655647.987413673 ; 4.0186041389661145E8 ; 5.539976387733814E8 ; 4.4506604175081505E10 ; 42380.65999999995
120 ; 4655819.432183786 ; 4.018705590834291E8 ; 5.58653286760795E8 ; 4.490846458897812E10 ; 42736.79999999995
121 ; 4653581.478210914 ; 4.018806853701596E8 ; 5.633091061929787E8 ; 4.531033514806155E10 ; 43092.93999999995
122 ; 4650257.406583368 ; 4.018907924393993E8 ; 5.679626876711897E8 ; 4.571221583343171E10 ; 43449.07999999995
123 ; 4649111.002148282 ; 4.019008799782149E8 ; 5.72612945077773E8 ; 4.611410662587111E10 ; 43805.21999999995
124 ; 4644724.079198518 ; 4.019109476779825E8 ; 5.772620560799212E8 ; 4.651600750584933E10 ; 44161.35999999995
125 ; 4642663.665507386 ; 4.019209952342342E8 ; 5.819067801591197E8 ; 4.691791845352731E10 ; 44517.49999999995
126 ; 4640098.09546881 ; 4.019310223465128E8 ; 5.865494438246272E8 ; 4.731983944876155E10 ; 44873.63999999995
127 ; 4635580.678142231 ; 4.0194102871823335E8 ; 5.911895419200959E8 ; 4.772177047110806E10 ; 45229.77999999995
128 ; 4635977.353881094 ; 4.019510140565509E8 ; 5.958251225982381E8 ; 4.8123711499826294E10 ; 45585.91999999995
129 ; 4631117.443110669 ; 4.0196097807223594E8 ; 6.004610999521192E8 ; 4.852566251388284E10 ; 45942.05999999995
130 ; 4628750.084320072 ; 4.019709204795542E8 ; 6.050922173952299E8 ; 4.892762349195508E10 ; 46298.199999999946
131 ; 4625050.4163492005 ; 4.019808409961531E8 ; 6.0972096747955E8 ; 4.932959441243463E10 ; 46654.339999999946
132 ; 4622061.336472138 ; 4.019907393429538E8 ; 6.143460178958992E8 ; 4.9731575253430786E10 ; 47010.479999999945
133 ; 4618858.398668112 ; 4.020006152440473E8 ; 6.189680792323713E8 ; 5.013356599277374E10 ; 47366.619999999944
134 ; 4618175.143229783 ; 4.020104684265964E8 ; 6.235869376310395E8 ; 5.053556660801779E10 ; 47722.759999999944
135 ; 4613682.194534474 ; 4.02020298620742E8 ; 6.282051127742693E8 ; 5.093757707644439E10 ; 48078.89999999994
136 ; 4611808.804042606 ; 4.020301055595131E8 ; 6.328187949688038E8 ; 5.133959737506513E10 ; 48435.03999999994
137 ; 4610336.003929761 ; 4.0203988897874177E8 ; 6.374306037728463E8 ; 5.174162748062465E10 ; 48791.17999999994
138 ; 4608517.293552951 ; 4.020496486169815E8 ; 6.420409397767761E8 ; 5.214366736960339E10 ; 49147.31999999994
139 ; 4604607.749008235 ; 4.0205938421542966E8 ; 6.466494570703291E8 ; 5.2545717018220375E10 ; 49503.45999999994
140 ; 4601941.634961094 ; 4.0206909551785314E8 ; 6.512540648193372E8 ; 5.294777640243581E10 ; 49859.59999999994
141 ; 4597775.134059496 ; 4.020787822705171E8 ; 6.558560064542984E8 ; 5.334984549795366E10 ; 50215.73999999994
142 ; 4597009.44523308 ; 4.02088444222118E8 ; 6.604537815883579E8 ; 5.3751924280224174E10 ; 50571.87999999994
143 ; 4592631.977660941 ; 4.0209808112371826E8 ; 6.65050791033591E8 ; 5.415401272444629E10 ; 50928.01999999994
144 ; 4589102.729519721 ; 4.021076927286847E8 ; 6.696434230112519E8 ; 5.455611080557001E10 ; 51284.15999999994
145 ; 4587010.784977559 ; 4.021172787926297E8 ; 6.742325257407717E8 ; 5.495821849829869E10 ; 51640.29999999994
146 ; 4585712.652118427 ; 4.021268390733543E8 ; 6.788195365257492E8 ; 5.5360335777091324E10 ; 51996.43999999994
147 ; 4583115.772885131 ; 4.0213637333079445E8 ; 6.834052491778677E8 ; 5.576246261616468E10 ; 52352.579999999936
148 ; 4585651.44078626 ; 4.021458813269695E8 ; 6.879883649507527E8 ; 5.6164598989495476E10 ; 52708.719999999936
149 ; 4582739.790012609 ; 4.0215536282593256E8 ; 6.92574016391539E8 ; 5.656674487082245E10 ; 53064.859999999935
150 ; 4581380.3422378 ; 4.021648175937234E8 ; 6.971567561815516E8 ; 5.6968900233648384E10 ; 53420.999999999935
151 ; 4580343.659737421 ; 4.021742453983233E8 ; 7.017381365237894E8 ; 5.737106505124211E10 ; 53777.139999999934
152 ; 4577163.589362108 ; 4.021836460096117E8 ; 7.063184801835269E8 ; 5.7773239296640434E10 ; 54133.27999999993
153 ; 4577111.985424929 ; 4.02193019199325E8 ; 7.10895643772889E8 ; 5.817542294265005E10 ; 54489.41999999993
154 ; 4575757.47206325 ; 4.022023647410166E8 ; 7.154727557583139E8 ; 5.857761596184937E10 ; 54845.55999999993
155 ; 4574285.64607377 ; 4.0221168241001916E8 ; 7.200485132303772E8 ; 5.897981832659039E10 ; 55201.69999999993
156 ; 4572335.506169817 ; 4.022209719834085E8 ; 7.24622798876451E8 ; 5.938203000900041E10 ; 55557.83999999993
157 ; 4570268.587339973 ; 4.022302332399683E8 ; 7.291951343826208E8 ; 5.978425098098382E10 ; 55913.97999999993
158 ; 4572827.2134559825 ; 4.022394659601573E8 ; 7.337654029699608E8 ; 6.0186481214223785E10 ; 56270.11999999993
159 ; 4570069.068138207 ; 4.02248669926077E8 ; 7.383382301834168E8 ; 6.0588720680183945E10 ; 56626.25999999993
160 ; 4568198.839125737 ; 4.0225784492144126E8 ; 7.429082992515551E8 ; 6.099096935011002E10 ; 56982.39999999993
161 ; 4567133.015706514 ; 4.02266990731547E8 ; 7.474764980906808E8 ; 6.139322719503146E10 ; 57338.53999999993
162 ; 4564921.898798769 ; 4.0227610714324605E8 ; 7.520436311063874E8 ; 6.179549418576301E10 ; 57694.67999999993
163 ; 4564104.75103116 ; 4.022851939449185E8 ; 7.566085530051862E8 ; 6.219777029290626E10 ; 58050.81999999993
164 ; 4560566.354847785 ; 4.022942509264464E8 ; 7.611726577562174E8 ; 6.260005548685117E10 ; 58406.95999999993
165 ; 4559100.329119839 ; 4.023032778791896E8 ; 7.657332241110651E8 ; 6.300234973777762E10 ; 58763.099999999926
166 ; 4556949.04932047 ; 4.023122745959617E8 ; 7.70292324440185E8 ; 6.340465301565681E10 ; 59119.239999999925
167 ; 4556614.750756115 ; 4.0232124087100744E8 ; 7.748492734895054E8 ; 6.380696529025277E10 ; 59475.379999999925
168 ; 4555185.502491896 ; 4.0233017649998116E8 ; 7.794058882402616E8 ; 6.420928653112378E10 ; 59831.519999999924
169 ; 4552378.132559548 ; 4.023390812799255E8 ; 7.839610737427535E8 ; 6.4611616707623764E10 ; 60187.65999999992
170 ; 4551469.660143462 ; 4.023479550092517E8 ; 7.88513451875313E8 ; 6.501395578890369E10 ; 60543.79999999992
171 ; 4546426.343415321 ; 4.0235679748772013E8 ; 7.930649215354565E8 ; 6.541630374391294E10 ; 60899.93999999992
172 ; 4548166.3871289855 ; 4.023656085164224E8 ; 7.976113478788719E8 ; 6.581866054140066E10 ; 61256.07999999992
173 ; 4545113.925628544 ; 4.02374387897763E8 ; 8.021595142660009E8 ; 6.622102614991708E10 ; 61612.21999999992
174 ; 4545476.915371736 ; 4.0238313543544304E8 ; 8.067046281916294E8 ; 6.662340053781485E10 ; 61968.35999999992
175 ; 4544460.384406871 ; 4.0239185093444365E8 ; 8.112501051070012E8 ; 6.702578367325029E10 ; 62324.49999999992
176 ; 4544916.14653852 ; 4.0240053420101047E8 ; 8.157945654914081E8 ; 6.742817552418473E10 ; 62680.63999999992
177 ; 4544391.93382114 ; 4.024091850426388E8 ; 8.203394816379466E8 ; 6.783057605838574E10 ; 63036.77999999992
