CSV File for the Network on Day 98
1 - Minute m 
2 - Power Consumed at minute m 
3 - Power Produced at minute m 
4 - Energy Consumed since the beginning of the day 
5 - Energy Produced since the beginning of the day 
6 - Energy Lost since the beginning of the day 
 
0 ; 4570173.76554017 ; 2.1109054989943326E8 ; 0.0 ; 0.0 ; 0.0
1 ; 4575790.238732683 ; 2.113964554674613E8 ; 4570173.76554017 ; 2.1109054989943326E8 ; 356.14
2 ; 4579347.090532163 ; 2.123199241482643E8 ; 9145964.004272852 ; 4.2248700536689454E8 ; 712.28
3 ; 4582867.881167766 ; 2.138609588345517E8 ; 1.3725311094805015E7 ; 6.348069295151589E8 ; 1068.42
4 ; 4588002.84606218 ; 2.1601956211773717E8 ; 1.830817897597278E7 ; 8.486678883497106E8 ; 1424.56
5 ; 4593940.147743495 ; 2.187957362739097E8 ; 2.289618182203496E7 ; 1.0646874504674478E9 ; 1780.6999999999998
6 ; 4597297.822199804 ; 2.2218948325128055E8 ; 2.7490121969778456E7 ; 1.2834831867413573E9 ; 2136.8399999999997
7 ; 4601469.727470211 ; 2.2620080465926796E8 ; 3.208741979197826E7 ; 1.5056726699926379E9 ; 2492.9799999999996
8 ; 4605117.260266969 ; 2.3082970175935948E8 ; 3.668888951944847E7 ; 1.7318734746519058E9 ; 2849.1199999999994
9 ; 4609027.166379336 ; 2.3607617545787388E8 ; 4.129400677971543E7 ; 1.9627031764112654E9 ; 3205.2599999999993
10 ; 4612519.307956091 ; 2.4194022630071938E8 ; 4.5903033946094766E7 ; 2.198779351869139E9 ; 3561.399999999999
11 ; 4614308.495384327 ; 2.484218544702196E8 ; 5.051555325405086E7 ; 2.4407195781698585E9 ; 3917.539999999999
12 ; 4618043.542379275 ; 2.5552105978405088E8 ; 5.512986174943519E7 ; 2.689141432640078E9 ; 4273.679999999999
13 ; 4622484.0264595365 ; 2.6323784169630498E8 ; 5.974790529181446E7 ; 2.944662492424129E9 ; 4629.82
14 ; 4626628.140972339 ; 2.715721993006633E8 ; 6.4370389318274E7 ; 3.207900334120434E9 ; 4985.96
15 ; 4630756.842560551 ; 2.8052413133563805E8 ; 6.899701745924634E7 ; 3.4794725334210973E9 ; 5342.1
16 ; 4632843.070240862 ; 2.9009363619181126E8 ; 7.362777430180688E7 ; 3.7599966647567353E9 ; 5698.240000000001
17 ; 4635433.469187305 ; 3.0028071192097145E8 ; 7.826061737204774E7 ; 4.0500903009485464E9 ; 6054.380000000001
18 ; 4637986.346848519 ; 3.110853562470297E8 ; 8.289605084123504E7 ; 4.350371012869518E9 ; 6410.520000000001
19 ; 4643472.412722869 ; 3.225075665785724E8 ; 8.753403718808356E7 ; 4.661456369116548E9 ; 6766.660000000002
20 ; 4644078.473700317 ; 3.3454734002289E8 ; 9.217750960080643E7 ; 4.98396393569512E9 ; 7122.800000000002
21 ; 4646745.901482895 ; 3.4720467340131074E8 ; 9.682158807450674E7 ; 5.31851127571801E9 ; 7478.940000000002
22 ; 4653684.803406849 ; 3.604795632656538E8 ; 1.0146833397598964E8 ; 5.665715949119321E9 ; 7835.080000000003
23 ; 4657506.52725474 ; 3.7437200591561186E8 ; 1.0612201877939649E8 ; 6.0261955123849745E9 ; 8191.220000000003
24 ; 4658907.813284562 ; 3.8888199741687036E8 ; 1.1077952530665123E8 ; 6.400567518300587E9 ; 8547.360000000002
25 ; 4660892.085142409 ; 4.013856154161383E8 ; 1.154384331199358E8 ; 6.789449515717457E9 ; 8903.500000000002
26 ; 4665617.008151125 ; 4.0138995123395777E8 ; 1.200993252050782E8 ; 7.190835131133595E9 ; 9259.640000000001
27 ; 4668436.575416234 ; 4.013945389337046E8 ; 1.2476494221322933E8 ; 7.592225082367554E9 ; 9615.78
28 ; 4668900.371185332 ; 4.013993738343276E8 ; 1.2943337878864557E8 ; 7.993619621301258E9 ; 9971.92
29 ; 4675393.394548869 ; 4.0140445111587626E8 ; 1.341022791598309E8 ; 8.395018995135586E9 ; 10328.06
30 ; 4676431.278715197 ; 4.0140976583823377E8 ; 1.3877767255437976E8 ; 8.796423446251463E9 ; 10684.199999999999
31 ; 4678974.746881295 ; 4.0141531295941216E8 ; 1.4345410383309495E8 ; 9.197833212089697E9 ; 11040.339999999998
32 ; 4683130.901544988 ; 4.014210873532945E8 ; 1.4813307857997626E8 ; 9.599248525049109E9 ; 11396.479999999998
33 ; 4685847.243568171 ; 4.0142708382672226E8 ; 1.5281620948152125E8 ; 1.0000669612402403E10 ; 11752.619999999997
34 ; 4688074.9846303575 ; 4.0143329713584447E8 ; 1.5750205672508943E8 ; 1.0402096696229126E10 ; 12108.759999999997
35 ; 4690426.052766338 ; 4.0143972200165755E8 ; 1.6219013170971978E8 ; 1.0803529993364971E10 ; 12464.899999999996
36 ; 4693056.592162903 ; 4.014463531246846E8 ; 1.668805577624861E8 ; 1.1204969715366629E10 ; 12821.039999999995
37 ; 4695681.312886996 ; 4.014531851987518E8 ; 1.71573614354649E8 ; 1.1606416068491314E10 ; 13177.179999999995
38 ; 4698844.144211309 ; 4.0146021292383856E8 ; 1.76269295667536E8 ; 1.2007869253690065E10 ; 13533.319999999994
39 ; 4699556.295973001 ; 4.0146743101798505E8 ; 1.809681398117473E8 ; 1.2409329466613903E10 ; 13889.459999999994
40 ; 4702390.465390084 ; 4.0147483422825634E8 ; 1.8566769610772032E8 ; 1.2810796897631887E10 ; 14245.599999999993
41 ; 4705330.024326936 ; 4.014824173407693E8 ; 1.903700865731104E8 ; 1.3212271731860144E10 ; 14601.739999999993
42 ; 4707052.73935183 ; 4.0149017518979776E8 ; 1.9507541659743735E8 ; 1.3613754149200912E10 ; 14957.879999999992
43 ; 4707299.2502924455 ; 4.014981026659799E8 ; 1.997824693367892E8 ; 1.401524432439071E10 ; 15314.019999999991
44 ; 4709588.384388916 ; 4.015061947236566E8 ; 2.0448976858708164E8 ; 1.441674242705669E10 ; 15670.15999999999
45 ; 4712906.705451161 ; 4.015144463873743E8 ; 2.0919935697147056E8 ; 1.4818248621780346E10 ; 16026.29999999999
46 ; 4715587.293507899 ; 4.0152285275759196E8 ; 2.1391226367692173E8 ; 1.521976306816772E10 ; 16382.43999999999
47 ; 4716243.469723776 ; 4.015314090156324E8 ; 2.1862785097042963E8 ; 1.5621285920925312E10 ; 16738.57999999999
48 ; 4718581.8464345755 ; 4.015401104279207E8 ; 2.2334409444015342E8 ; 1.6022817329940945E10 ; 17094.71999999999
49 ; 4718928.387791419 ; 4.015489523495562E8 ; 2.2806267628658798E8 ; 1.6424357440368866E10 ; 17450.85999999999
50 ; 4720314.238364846 ; 4.0155793022726095E8 ; 2.327816046743794E8 ; 1.6825906392718422E10 ; 17806.99999999999
51 ; 4719962.650090554 ; 4.015670396017507E8 ; 2.3750191891274425E8 ; 1.7227464322945683E10 ; 18163.13999999999
52 ; 4723300.95449871 ; 4.0157627610957414E8 ; 2.422218815628348E8 ; 1.7629031362547432E10 ; 18519.279999999988
53 ; 4723865.206028703 ; 4.0158563548446226E8 ; 2.469451825173335E8 ; 1.8030607638657005E10 ; 18875.419999999987
54 ; 4724359.7462414885 ; 4.015951135582312E8 ; 2.516690477233622E8 ; 1.8432193274141468E10 ; 19231.559999999987
55 ; 4724970.7664227355 ; 4.0160470626127934E8 ; 2.563934074696037E8 ; 1.88337883876997E10 ; 19587.699999999986
56 ; 4725115.294632508 ; 4.016144096227182E8 ; 2.6111837823602644E8 ; 1.923539309396098E10 ; 19943.839999999986
57 ; 4728046.733624689 ; 4.016242197701726E8 ; 2.6584349353065893E8 ; 1.96370075035837E10 ; 20299.979999999985
58 ; 4727517.452551074 ; 4.016341329292878E8 ; 2.705715402642836E8 ; 2.003863172335387E10 ; 20656.119999999984
59 ; 4730641.342907579 ; 4.016441454229734E8 ; 2.7529905771683466E8 ; 2.0440265856283157E10 ; 21012.259999999984
60 ; 4731682.186333536 ; 4.01654253670418E8 ; 2.800296990597423E8 ; 2.084191000170613E10 ; 21368.399999999983
61 ; 4735100.929369735 ; 4.016644541859013E8 ; 2.847613812460758E8 ; 2.124356425537655E10 ; 21724.539999999983
62 ; 4733558.092938655 ; 4.016747435774298E8 ; 2.8949648217544556E8 ; 2.164522870956245E10 ; 22080.679999999982
63 ; 4733922.037920463 ; 4.016851185452232E8 ; 2.942300402683842E8 ; 2.204690345313988E10 ; 22436.81999999998
64 ; 4735836.697973799 ; 4.016955758800714E8 ; 2.989639623063047E8 ; 2.2448588571685104E10 ; 22792.95999999998
65 ; 4738751.89384636 ; 4.017061124615836E8 ; 3.036997990042785E8 ; 2.2850284147565174E10 ; 23149.09999999998
66 ; 4739361.625532751 ; 4.0171672525634885E8 ; 3.084385508981248E8 ; 2.3251990260026756E10 ; 23505.23999999998
67 ; 4741986.941473458 ; 4.0172741131602436E8 ; 3.1317791252365756E8 ; 2.3653706985283104E10 ; 23861.37999999998
68 ; 4742276.0963596 ; 4.0173816777536726E8 ; 3.1791989946513104E8 ; 2.405543439659913E10 ; 24217.51999999998
69 ; 4738482.800244458 ; 4.01748991850224E8 ; 3.2266217556149065E8 ; 2.4457172564374496E10 ; 24573.659999999978
70 ; 4742829.041459397 ; 4.0175988083548903E8 ; 3.274006583617351E8 ; 2.485892155622472E10 ; 24929.799999999977
71 ; 4743251.104938793 ; 4.0177083210304487E8 ; 3.321434874031945E8 ; 2.5260681437060207E10 ; 25285.939999999977
72 ; 4740104.470811641 ; 4.01781843099693E8 ; 3.368867385081333E8 ; 2.5662452269163254E10 ; 25642.079999999976
73 ; 4743942.556985743 ; 4.017929113450838E8 ; 3.4162684297894496E8 ; 2.6064234112262947E10 ; 25998.219999999976
74 ; 4743779.18092113 ; 4.018040344296544E8 ; 3.463707855359307E8 ; 2.6466027023608032E10 ; 26354.359999999975
75 ; 4744517.524460909 ; 4.018152100125804E8 ; 3.5111456471685183E8 ; 2.6867831058037685E10 ; 26710.499999999975
76 ; 4746068.115257721 ; 4.018264358197471E8 ; 3.5585908224131274E8 ; 2.7269646268050266E10 ; 27066.639999999974
77 ; 4744829.764355161 ; 4.0183770964174646E8 ; 3.606051503565705E8 ; 2.7671472703870014E10 ; 27422.779999999973
78 ; 4744915.978523726 ; 4.0184902933190256E8 ; 3.6534998012092566E8 ; 2.807331041351176E10 ; 27778.919999999973
79 ; 4746250.247520124 ; 4.018603928043308E8 ; 3.700948960994494E8 ; 2.8475159442843662E10 ; 28135.059999999972
80 ; 4747316.837287174 ; 4.0187179803203285E8 ; 3.7484114634696954E8 ; 2.8877019835647995E10 ; 28491.19999999997
81 ; 4747421.589649735 ; 4.018832430450303E8 ; 3.7958846318425673E8 ; 2.9278891633680027E10 ; 28847.33999999997
82 ; 4747658.1992393285 ; 4.0189472592853934E8 ; 3.8433588477390647E8 ; 2.9680774876725056E10 ; 29203.47999999997
83 ; 4748221.188297457 ; 4.019062448211876E8 ; 3.890835429731458E8 ; 3.0082669602653595E10 ; 29559.61999999997
84 ; 4745829.047225386 ; 4.0191779791327506E8 ; 3.9383176416144323E8 ; 3.048457584747478E10 ; 29915.75999999997
85 ; 4750184.060196309 ; 4.019293834450792E8 ; 3.985775932086686E8 ; 3.0886493645388058E10 ; 30271.89999999997
86 ; 4747467.214191769 ; 4.019409997052058E8 ; 4.0332777726886487E8 ; 3.1288423028833138E10 ; 30628.039999999968
87 ; 4748284.6281896755 ; 4.019526450289855E8 ; 4.0807524448305666E8 ; 3.169036402853834E10 ; 30984.179999999968
88 ; 4748165.6629509805 ; 4.0196431779691595E8 ; 4.1282352911124635E8 ; 3.2092316673567326E10 ; 31340.319999999967
89 ; 4750455.204552824 ; 4.019760164331498E8 ; 4.1757169477419734E8 ; 3.2494280991364243E10 ; 31696.459999999966
90 ; 4749066.011974663 ; 4.019877394040284E8 ; 4.2232214997875017E8 ; 3.2896257007797394E10 ; 32052.599999999966
91 ; 4748883.7613483695 ; 4.019994852166605E8 ; 4.270712159907248E8 ; 3.3298244747201424E10 ; 32408.739999999965
92 ; 4747065.491568581 ; 4.0201125241754603E8 ; 4.3182009975207317E8 ; 3.3700244232418083E10 ; 32764.879999999965
93 ; 4749577.383148292 ; 4.020230395912429E8 ; 4.3656716524364173E8 ; 3.410225548483563E10 ; 33121.01999999997
94 ; 4747512.78701528 ; 4.020348453590785E8 ; 4.4131674262679005E8 ; 3.450427852442687E10 ; 33477.15999999997
95 ; 4747330.730863711 ; 4.020466683779027E8 ; 4.460642554138053E8 ; 3.490631336978595E10 ; 33833.29999999997
96 ; 4748079.645857466 ; 4.0205850733888245E8 ; 4.50811586144669E8 ; 3.530836003816385E10 ; 34189.439999999966
97 ; 4747348.744550409 ; 4.0207036096633816E8 ; 4.5555966579052645E8 ; 3.571041854550273E10 ; 34545.579999999965
98 ; 4748316.833538809 ; 4.020822280166185E8 ; 4.6030701453507686E8 ; 3.611248890646907E10 ; 34901.719999999965
99 ; 4748657.692510362 ; 4.0209410727701485E8 ; 4.650553313686157E8 ; 3.651457113448569E10 ; 35257.859999999964
100 ; 4746503.377310733 ; 4.021059975647131E8 ; 4.6980398906112605E8 ; 3.69166652417627E10 ; 35613.99999999996
101 ; 4744962.106983231 ; 4.0211789772578263E8 ; 4.745504924384368E8 ; 3.7318771239327415E10 ; 35970.13999999996
102 ; 4745951.815313654 ; 4.021298066342002E8 ; 4.7929545454542005E8 ; 3.77208891370532E10 ; 36326.27999999996
103 ; 4745487.963987239 ; 4.0214172319090927E8 ; 4.840414063607337E8 ; 3.81230189436874E10 ; 36682.41999999996
104 ; 4746586.230309401 ; 4.021536463229122E8 ; 4.887868943247209E8 ; 3.852516066687831E10 ; 37038.55999999996
105 ; 4744250.650841077 ; 4.0216557498239577E8 ; 4.9353348055503035E8 ; 3.8927314313201225E10 ; 37394.69999999996
106 ; 4743667.774491643 ; 4.021775081458874E8 ; 4.982777312058714E8 ; 3.9329479888183624E10 ; 37750.83999999996
107 ; 4743191.666567917 ; 4.0218944481344223E8 ; 5.030213989803631E8 ; 3.973165739632951E10 ; 38106.97999999996
108 ; 4743154.987323291 ; 4.0220138400786006E8 ; 5.07764590646931E8 ; 4.013384684114296E10 ; 38463.11999999996
109 ; 4743407.69142032 ; 4.022133247739299E8 ; 5.125077456342543E8 ; 4.053604822515082E10 ; 38819.25999999996
110 ; 4741091.028609184 ; 4.022252661777029E8 ; 5.172511533256746E8 ; 4.093826154992475E10 ; 39175.39999999996
111 ; 4742507.985879433 ; 4.022372073057914E8 ; 5.2199224435428375E8 ; 4.1340486816102455E10 ; 39531.53999999996
112 ; 4742122.15318319 ; 4.0224914726469374E8 ; 5.267347523401632E8 ; 4.174272402340825E10 ; 39887.67999999996
113 ; 4738974.758909427 ; 4.022610851801437E8 ; 5.3147687449334633E8 ; 4.214497317067294E10 ; 40243.819999999956
114 ; 4738903.367592029 ; 4.0227302019648415E8 ; 5.3621584925225574E8 ; 4.254723425585309E10 ; 40599.959999999955
115 ; 4737400.797650805 ; 4.022849514760633E8 ; 5.409547526198478E8 ; 4.2949507276049576E10 ; 40956.099999999955
116 ; 4736491.897827017 ; 4.022968781986534E8 ; 5.456921534174986E8 ; 4.335179222752564E10 ; 41312.239999999954
117 ; 4733353.335556595 ; 4.0230879956089044E8 ; 5.504286453153256E8 ; 4.37540891057243E10 ; 41668.379999999954
118 ; 4735878.573191821 ; 4.023207147757352E8 ; 5.551619986508822E8 ; 4.415639790528519E10 ; 42024.51999999995
119 ; 4734137.5475310795 ; 4.02332623071953E8 ; 5.59897877224074E8 ; 4.455871862006092E10 ; 42380.65999999995
120 ; 4733297.99955672 ; 4.0234452369361365E8 ; 5.646320147716051E8 ; 4.496105124313287E10 ; 42736.79999999995
121 ; 4731945.080967029 ; 4.023564158996091E8 ; 5.693653127711618E8 ; 4.5363395766826485E10 ; 43092.93999999995
122 ; 4729013.1540094 ; 4.0236829896318877E8 ; 5.740972578521289E8 ; 4.57657521827261E10 ; 43449.07999999995
123 ; 4729435.552657386 ; 4.0238017217151237E8 ; 5.788262710061382E8 ; 4.6168120481689285E10 ; 43805.21999999995
124 ; 4726826.506519385 ; 4.023920348252188E8 ; 5.835557065587956E8 ; 4.6570500653860794E10 ; 44161.35999999995
125 ; 4725726.018423994 ; 4.024038862380106E8 ; 5.88282533065315E8 ; 4.697289268868601E10 ; 44517.49999999995
126 ; 4723012.624936424 ; 4.024157257362539E8 ; 5.93008259083739E8 ; 4.737529657492403E10 ; 44873.63999999995
127 ; 4718916.662430095 ; 4.024275526585931E8 ; 5.977312717086755E8 ; 4.777771230066028E10 ; 45229.77999999995
128 ; 4716888.839822447 ; 4.02439366355579E8 ; 6.024501883711056E8 ; 4.818013985331887E10 ; 45585.91999999995
129 ; 4715668.970816693 ; 4.0245116618931115E8 ; 6.07167077210928E8 ; 4.8582579219674446E10 ; 45942.05999999995
130 ; 4714336.47025073 ; 4.024629515330924E8 ; 6.118827461817447E8 ; 4.8985030385863754E10 ; 46298.199999999946
131 ; 4710616.959254971 ; 4.0247472177109665E8 ; 6.165970826519954E8 ; 4.938749333739684E10 ; 46654.339999999946
132 ; 4710981.695642664 ; 4.024864762980485E8 ; 6.213076996112504E8 ; 4.978996805916794E10 ; 47010.479999999945
133 ; 4708260.427015225 ; 4.0249821451891387E8 ; 6.260186813068931E8 ; 5.019245453546599E10 ; 47366.619999999944
134 ; 4708878.597247273 ; 4.0250993584860265E8 ; 6.307269417339083E8 ; 5.05949527499849E10 ; 47722.759999999944
135 ; 4703826.204499262 ; 4.025216397116811E8 ; 6.354358203311555E8 ; 5.09974626858335E10 ; 48078.89999999994
136 ; 4703956.162915984 ; 4.0253332554209566E8 ; 6.401396465356548E8 ; 5.139998432554518E10 ; 48435.03999999994
137 ; 4701428.431642922 ; 4.0254499278290504E8 ; 6.448436026985707E8 ; 5.180251765108728E10 ; 48791.17999999994
138 ; 4699153.537922676 ; 4.025566408860239E8 ; 6.495450311302136E8 ; 5.2205062643870186E10 ; 49147.31999999994
139 ; 4698817.151302275 ; 4.025682693119737E8 ; 6.542441846681362E8 ; 5.260761928475621E10 ; 49503.45999999994
140 ; 4696771.246117447 ; 4.02579877529644E8 ; 6.589430018194385E8 ; 5.3010187554068184E10 ; 49859.59999999994
141 ; 4694894.396598217 ; 4.025914650160607E8 ; 6.636397730655559E8 ; 5.3412767431597824E10 ; 50215.73999999994
142 ; 4692646.7146716 ; 4.0260303125616413E8 ; 6.683346674621542E8 ; 5.3815358896613884E10 ; 50571.87999999994
143 ; 4688077.489822804 ; 4.0261457574259317E8 ; 6.730273141768258E8 ; 5.421796192787005E10 ; 50928.01999999994
144 ; 4688096.935556127 ; 4.0262609797547853E8 ; 6.777153916666485E8 ; 5.462057650361264E10 ; 51284.15999999994
145 ; 4684826.761498094 ; 4.026375974622422E8 ; 6.824034886022047E8 ; 5.502320260158812E10 ; 51640.29999999994
146 ; 4689023.416194456 ; 4.026490737174046E8 ; 6.870883153637028E8 ; 5.542584019905036E10 ; 51996.43999999994
147 ; 4686824.135021231 ; 4.02660526262398E8 ; 6.917773387798972E8 ; 5.582848927276777E10 ; 52352.579999999936
148 ; 4685423.016631702 ; 4.026719546253864E8 ; 6.964641629149184E8 ; 5.623114979903017E10 ; 52708.719999999936
149 ; 4683733.64802854 ; 4.026833583410922E8 ; 7.011495859315501E8 ; 5.6633821753655556E10 ; 53064.859999999935
150 ; 4683880.909675268 ; 4.026947369506283E8 ; 7.058333195795786E8 ; 5.703650511199665E10 ; 53420.999999999935
151 ; 4685832.971102497 ; 4.0270609000133586E8 ; 7.105172004892539E8 ; 5.743919984894728E10 ; 53777.139999999934
152 ; 4683114.417128288 ; 4.027174170466287E8 ; 7.152030334603564E8 ; 5.7841905938948616E10 ; 54133.27999999993
153 ; 4682175.572819838 ; 4.027287176458416E8 ; 7.198861478774847E8 ; 5.824462335599525E10 ; 54489.41999999993
154 ; 4682355.375382339 ; 4.027399913640847E8 ; 7.245683234503045E8 ; 5.864735207364109E10 ; 54845.55999999993
155 ; 4681380.040815993 ; 4.027512377721028E8 ; 7.292506788256868E8 ; 5.905009206500517E10 ; 55201.69999999993
156 ; 4683199.930102738 ; 4.0276245644613874E8 ; 7.339320588665028E8 ; 5.9452843302777275E10 ; 55557.83999999993
157 ; 4683956.2080231495 ; 4.027736469678026E8 ; 7.386152587966055E8 ; 5.985560575922341E10 ; 55913.97999999993
158 ; 4682065.620912153 ; 4.0278480892394423E8 ; 7.432992150046287E8 ; 6.0258379406191216E10 ; 56270.11999999993
159 ; 4682812.81184658 ; 4.027959419065307E8 ; 7.479812806255409E8 ; 6.066116421511516E10 ; 56626.25999999993
160 ; 4681164.5661977 ; 4.0280704551252735E8 ; 7.526640934373875E8 ; 6.106396015702169E10 ; 56982.39999999993
161 ; 4681693.52154815 ; 4.028181193437835E8 ; 7.573452580035852E8 ; 6.146676720253422E10 ; 57338.53999999993
162 ; 4680756.26451745 ; 4.028291630069215E8 ; 7.620269515251334E8 ; 6.1869585321878E10 ; 57694.67999999993
163 ; 4677986.297773308 ; 4.028401761132295E8 ; 7.667077077896508E8 ; 6.227241448488492E10 ; 58050.81999999993
164 ; 4678348.129445574 ; 4.028511582785579E8 ; 7.713856940874242E8 ; 6.2675254660998146E10 ; 58406.95999999993
165 ; 4677723.807196314 ; 4.028621091232192E8 ; 7.760640422168697E8 ; 6.30781058192767E10 ; 58763.099999999926
166 ; 4676015.241095337 ; 4.028730282718913E8 ; 7.80741766024066E8 ; 6.3480967928399925E10 ; 59119.239999999925
167 ; 4674784.499121787 ; 4.028839153535236E8 ; 7.854177812651613E8 ; 6.3883840956671814E10 ; 59475.379999999925
168 ; 4674959.030425776 ; 4.028947700012467E8 ; 7.900925657642831E8 ; 6.428672487202534E10 ; 59831.519999999924
169 ; 4677379.110654744 ; 4.0290559185228455E8 ; 7.947675247947088E8 ; 6.468961964202658E10 ; 60187.65999999992
170 ; 4671718.468996928 ; 4.029163805478697E8 ; 7.994449039053636E8 ; 6.509252523387887E10 ; 60543.79999999992
171 ; 4671429.284598159 ; 4.029271357331615E8 ; 8.041166223743604E8 ; 6.5495441614426735E10 ; 60899.93999999992
172 ; 4670827.52731571 ; 4.029378570571668E8 ; 8.087880516589586E8 ; 6.58983687501599E10 ; 61256.07999999992
173 ; 4671799.012110928 ; 4.02948544172663E8 ; 8.134588791862743E8 ; 6.6301306607217064E10 ; 61612.21999999992
174 ; 4672320.283197424 ; 4.029591967361236E8 ; 8.181306781983852E8 ; 6.6704255151389725E10 ; 61968.35999999992
175 ; 4671424.674368985 ; 4.02969814407647E8 ; 8.228029984815826E8 ; 6.710721434812585E10 ; 62324.49999999992
176 ; 4675480.079609122 ; 4.0298039685088634E8 ; 8.274744231559516E8 ; 6.751018416253349E10 ; 62680.63999999992
177 ; 4675208.95229565 ; 4.029909437329821E8 ; 8.321499032355608E8 ; 6.791316455938438E10 ; 63036.77999999992
