CSV File for the Network on Day 196
1 - Minute m 
2 - Power Consumed at minute m 
3 - Power Produced at minute m 
4 - Energy Consumed since the beginning of the day 
5 - Energy Produced since the beginning of the day 
6 - Energy Lost since the beginning of the day 
 
0 ; 688480.3014003144 ; 2.108420852330924E8 ; 0.0 ; 0.0 ; 0.0
1 ; 690321.4920853681 ; 2.1114766511370823E8 ; 688480.3014003144 ; 2.108420852330924E8 ; 356.14
2 ; 696529.5096717016 ; 2.120708351748418E8 ; 1378801.7934856825 ; 4.219897503468006E8 ; 712.28
3 ; 701338.0041511075 ; 2.1361160057772812E8 ; 2075331.303157384 ; 6.340605855216424E8 ; 1068.42
4 ; 707272.6216903776 ; 2.1576996599290773E8 ; 2776669.3073084913 ; 8.476721860993706E8 ; 1424.56
5 ; 711271.4989648744 ; 2.1854593555954954E8 ; 3483941.928998869 ; 1.0634421520922784E9 ; 1780.6999999999998
6 ; 715436.429508571 ; 2.2193951284826604E8 ; 4195213.427963743 ; 1.2819880876518278E9 ; 2136.8399999999997
7 ; 719525.2022566607 ; 2.2595070082817277E8 ; 4910649.857472314 ; 1.503927600500094E9 ; 2492.9799999999996
8 ; 722356.2889766701 ; 2.305795018388826E8 ; 5630175.0597289745 ; 1.7298783013282666E9 ; 2849.1199999999994
9 ; 727336.3973888512 ; 2.3582591756804416E8 ; 6352531.348705645 ; 1.9604578031671493E9 ; 3205.2599999999993
10 ; 730598.6598033826 ; 2.4168994903492156E8 ; 7079867.746094496 ; 2.1962837207351933E9 ; 3561.399999999999
11 ; 732898.3752549093 ; 2.481715965803899E8 ; 7810466.405897878 ; 2.437973669770115E9 ; 3917.539999999999
12 ; 738061.6571033555 ; 2.55270859863574E8 ; 8543364.781152787 ; 2.686145266350505E9 ; 4273.679999999999
13 ; 740108.4353125249 ; 2.629877378652098E8 ; 9281426.438256143 ; 2.941416126214079E9 ; 4629.82
14 ; 746249.6998686804 ; 2.713222288976488E8 ; 1.0021534873568667E7 ; 3.2044038640792885E9 ; 4985.96
15 ; 747728.0815700172 ; 2.802743306212779E8 ; 1.0767784573437348E7 ; 3.4757260929769373E9 ; 5342.1
16 ; 751965.497195454 ; 2.8984404006698185E8 ; 1.1515512655007366E7 ; 3.756000423598215E9 ; 5698.240000000001
17 ; 756920.6826580013 ; 3.000313536641479E8 ; 1.226747815220282E7 ; 4.045844463665197E9 ; 6054.380000000001
18 ; 760731.6106629764 ; 3.1083626727360725E8 ; 1.3024398834860822E7 ; 4.345875817329345E9 ; 6410.520000000001
19 ; 765188.519281959 ; 3.2225877622481936E8 ; 1.3785130445523798E7 ; 4.656712084602952E9 ; 6766.660000000002
20 ; 768971.3135481218 ; 3.3429887535654914E8 ; 1.4550318964805758E7 ; 4.978970860827771E9 ; 7122.800000000002
21 ; 771038.348220024 ; 3.469565590602516E8 ; 1.531929027835388E7 ; 5.31326973618432E9 ; 7478.940000000002
22 ; 772750.6162057157 ; 3.602318213253716E8 ; 1.6090328626573903E7 ; 5.660226295244572E9 ; 7835.080000000003
23 ; 778292.0978902461 ; 3.741246557857823E8 ; 1.686307924277962E7 ; 6.020458116569943E9 ; 8191.220000000003
24 ; 780674.056193338 ; 3.886350557666196E8 ; 1.7641371340669867E7 ; 6.394582772355725E9 ; 8547.360000000002
25 ; 785312.5713567482 ; 4.011390961271972E8 ; 1.8422045396863203E7 ; 6.783217828122345E9 ; 8903.500000000002
26 ; 790046.0458142366 ; 4.0114386538043547E8 ; 1.920735796821995E7 ; 7.184356924249542E9 ; 9259.640000000001
27 ; 793542.8635145121 ; 4.011488947868577E8 ; 1.999740401403419E7 ; 7.585500789629978E9 ; 9615.78
28 ; 796466.258278909 ; 4.0115417689041543E8 ; 2.0790946877548702E7 ; 7.986649684416836E9 ; 9971.92
29 ; 798990.5322714528 ; 4.011597041449765E8 ; 2.1587413135827612E7 ; 8.387803861307251E9 ; 10328.06
30 ; 801481.0010561976 ; 4.01165468951752E8 ; 2.2386403668099064E7 ; 8.788963565452227E9 ; 10684.199999999999
31 ; 806546.4244761363 ; 4.0117146369394135E8 ; 2.3187884669155262E7 ; 9.190129034403978E9 ; 11040.339999999998
32 ; 807778.3896155097 ; 4.011776807684624E8 ; 2.3994431093631398E7 ; 9.59130049809792E9 ; 11396.479999999998
33 ; 811579.7497408004 ; 4.0118411261469924E8 ; 2.4802209483246908E7 ; 9.992478178866383E9 ; 11752.619999999997
34 ; 813324.0687225111 ; 4.0119075174026096E8 ; 2.561378923298771E7 ; 1.0393662291481081E10 ; 12108.759999999997
35 ; 816628.5399971092 ; 4.011975907437946E8 ; 2.6427113301710222E7 ; 1.0794853043221342E10 ; 12464.899999999996
36 ; 822637.1695720673 ; 4.01204622334939E8 ; 2.724374184170733E7 ; 1.1196050633965137E10 ; 12821.039999999995
37 ; 824841.0730565335 ; 4.012118393515385E8 ; 2.8066379011279397E7 ; 1.1597255256300076E10 ; 13177.179999999995
38 ; 828017.1889375194 ; 4.0121923477426356E8 ; 2.889122008433593E7 ; 1.1998467095651613E10 ; 13533.319999999994
39 ; 830782.0062541241 ; 4.01226801738802E8 ; 2.971923727327345E7 ; 1.2399686330425877E10 ; 13889.459999999994
40 ; 836153.6216830019 ; 4.012345335457981E8 ; 3.0550019279527575E7 ; 1.2800913132164679E10 ; 14245.599999999993
41 ; 838116.9306442637 ; 4.012424236687244E8 ; 3.1386172901210576E7 ; 1.3202147665710476E10 ; 14601.739999999993
42 ; 838142.3862518576 ; 4.012504657598707E8 ; 3.222428983185484E7 ; 1.36033900893792E10 ; 14957.879999999992
43 ; 839971.7048496001 ; 4.0125865365463644E8 ; 3.30624322181067E7 ; 1.400464055513907E10 ; 15314.019999999991
44 ; 844210.7026395267 ; 4.012669813743043E8 ; 3.3902403922956295E7 ; 1.4405899208793707E10 ; 15670.15999999999
45 ; 845558.1088398311 ; 4.0127544312746835E8 ; 3.474661462559582E7 ; 1.480716619016801E10 ; 16026.29999999999
46 ; 848406.5492830939 ; 4.0128403331028E8 ; 3.5592172734435655E7 ; 1.5208441633295479E10 ; 16382.43999999999
47 ; 851377.7718891967 ; 4.0129274650566447E8 ; 3.644057928371875E7 ; 1.5609725666605759E10 ; 16738.57999999999
48 ; 853103.7457950448 ; 4.013015774816495E8 ; 3.7291957055607945E7 ; 1.6011018413111423E10 ; 17094.71999999999
49 ; 856606.2770724606 ; 4.01310521188939E8 ; 3.8145060801402986E7 ; 1.6412319990593073E10 ; 17450.85999999999
50 ; 857692.1238219241 ; 4.0131957275784814E8 ; 3.9001667078475446E7 ; 1.6813630511782011E10 ; 17806.99999999999
51 ; 858625.5137624871 ; 4.013287274947101E8 ; 3.985935920229737E7 ; 1.721495008453986E10 ; 18163.13999999999
52 ; 861671.0704954268 ; 4.0133798087785107E8 ; 4.0717984716059856E7 ; 1.761627881203457E10 ; 18519.279999999988
53 ; 863583.4573904551 ; 4.0134732855321956E8 ; 4.157965578655528E7 ; 1.801761679291242E10 ; 18875.419999999987
54 ; 861887.1889353215 ; 4.0135676632974774E8 ; 4.244323924394574E7 ; 1.8418964121465637E10 ; 19231.559999999987
55 ; 866115.0952551586 ; 4.0136629017451257E8 ; 4.3305126432881065E7 ; 1.8820320887795383E10 ; 19587.699999999986
56 ; 865878.7926534727 ; 4.013758962077554E8 ; 4.417124152813622E7 ; 1.9221687177969894E10 ; 19943.839999999986
57 ; 868414.0653392582 ; 4.013855806978122E8 ; 4.5037120320789695E7 ; 1.962306307417765E10 ; 20299.979999999985
58 ; 872584.1326900009 ; 4.0139534005599856E8 ; 4.5905534386128955E7 ; 2.002444865487546E10 ; 20656.119999999984
59 ; 873830.4995101601 ; 4.0140517083148825E8 ; 4.677811851881895E7 ; 2.042584399493146E10 ; 21012.259999999984
60 ; 878239.179437788 ; 4.01415069706216E8 ; 4.765194901832911E7 ; 2.082724916576295E10 ; 21368.399999999983
61 ; 878700.6278846485 ; 4.0142503348983395E8 ; 4.85301881977669E7 ; 2.1228664235469166E10 ; 21724.539999999983
62 ; 880350.9940012592 ; 4.014350591147429E8 ; 4.940888882565155E7 ; 2.1630089268959E10 ; 22080.679999999982
63 ; 883154.4182399819 ; 4.014451436312169E8 ; 5.028923981965281E7 ; 2.2031524328073742E10 ; 22436.81999999998
64 ; 884754.120341702 ; 4.0145528420263755E8 ; 5.117239423789279E7 ; 2.243296947170496E10 ; 22792.95999999998
65 ; 885851.8692587592 ; 4.0146547810084844E8 ; 5.2057148358234495E7 ; 2.2834424755907597E10 ; 23149.09999999998
66 ; 890722.421367413 ; 4.014757227016398E8 ; 5.294300022749326E7 ; 2.3235890234008446E10 ; 23505.23999999998
67 ; 889817.094603136 ; 4.014860154803699E8 ; 5.383372264886067E7 ; 2.3637365956710087E10 ; 23861.37999999998
68 ; 891210.8233864559 ; 4.0149635400772923E8 ; 5.472353974346381E7 ; 2.4038851972190456E10 ; 24217.51999999998
69 ; 894346.8308088278 ; 4.015067359456478E8 ; 5.561475056685026E7 ; 2.4440348326198185E10 ; 24573.659999999978
70 ; 896174.7093887075 ; 4.015171590433508E8 ; 5.6509097397659086E7 ; 2.4841855062143833E10 ; 24929.799999999977
71 ; 896128.5776693616 ; 4.0152762113356066E8 ; 5.7405272107047796E7 ; 2.5243372221187183E10 ; 25285.939999999977
72 ; 896679.1343047137 ; 4.015381201288451E8 ; 5.8301400684717156E7 ; 2.5644899842320744E10 ; 25642.079999999976
73 ; 897676.5711968982 ; 4.015486540181109E8 ; 5.919807981902187E7 ; 2.604643796244959E10 ; 25998.219999999976
74 ; 899541.1708414505 ; 4.0155922086323994E8 ; 6.009575639021877E7 ; 2.64479866164677E10 ; 26354.359999999975
75 ; 901148.7910909465 ; 4.0156981879586536E8 ; 6.099529756106022E7 ; 2.684954583733094E10 ; 26710.499999999975
76 ; 903895.0808979367 ; 4.015804460142845E8 ; 6.189644635215116E7 ; 2.7251115656126804E10 ; 27066.639999999974
77 ; 904890.6836095761 ; 4.0159110078050476E8 ; 6.28003414330491E7 ; 2.765269610214109E10 ; 27422.779999999973
78 ; 905771.9135416467 ; 4.0160178141741925E8 ; 6.370523211665867E7 ; 2.8054287202921597E10 ; 27778.919999999973
79 ; 906154.7104370025 ; 4.0161248630610687E8 ; 6.461100403020032E7 ; 2.8455888984339016E10 ; 28135.059999999972
80 ; 906877.219692344 ; 4.016232138832538E8 ; 6.551715874063732E7 ; 2.8857501470645123E10 ; 28491.19999999997
81 ; 908068.3771617067 ; 4.0163396263869184E8 ; 6.642403596032966E7 ; 2.9259124684528378E10 ; 28847.33999999997
82 ; 911572.214103479 ; 4.0164473111304814E8 ; 6.733210433749136E7 ; 2.966075864716707E10 ; 29203.47999999997
83 ; 913036.5163512876 ; 4.01655517895504E8 ; 6.824367655159484E7 ; 3.0062403378280117E10 ; 29559.61999999997
84 ; 913931.60102286 ; 4.016663216216563E8 ; 6.915671306794612E7 ; 3.046405889617562E10 ; 29915.75999999997
85 ; 915915.6139911168 ; 4.0167714097147906E8 ; 7.007064466896898E7 ; 3.0865725217797276E10 ; 30271.89999999997
86 ; 917316.7318563045 ; 4.0168797466737914E8 ; 7.098656028296009E7 ; 3.1267402358768753E10 ; 30628.039999999968
87 ; 915637.1005893769 ; 4.01698821472344E8 ; 7.190387701481639E7 ; 3.166909033343613E10 ; 30984.179999999968
88 ; 919780.786119656 ; 4.0170968018817556E8 ; 7.281951411540577E7 ; 3.2070789154908474E10 ; 31340.319999999967
89 ; 921892.3387005894 ; 4.017205496538079E8 ; 7.373929490152542E7 ; 3.247249883509665E10 ; 31696.459999999966
90 ; 921135.1648384888 ; 4.0173142874370325E8 ; 7.466118724022602E7 ; 3.2874219384750458E10 ; 32052.599999999966
91 ; 921748.3369577632 ; 4.017423163663249E8 ; 7.558232240506451E7 ; 3.327595081349416E10 ; 32408.739999999965
92 ; 922289.4063487394 ; 4.0175321146268123E8 ; 7.650407074202228E7 ; 3.3677693129860485E10 ; 32764.879999999965
93 ; 921474.6736750238 ; 4.0176411300493896E8 ; 7.742636014837101E7 ; 3.4079446341323166E10 ; 33121.01999999997
94 ; 926848.53868982 ; 4.017750199951016E8 ; 7.834783482204604E7 ; 3.44812104543281E10 ; 33477.15999999997
95 ; 925656.5737365563 ; 4.017859314637506E8 ; 7.927468336073586E7 ; 3.4882985474323204E10 ; 33833.29999999997
96 ; 926134.2319568268 ; 4.0179684646884584E8 ; 8.020033993447243E7 ; 3.528477140578696E10 ; 34189.439999999966
97 ; 926582.5693179001 ; 4.018077640945821E8 ; 8.112647416642925E7 ; 3.5686568252255806E10 ; 34545.579999999965
98 ; 928768.0185255148 ; 4.018186834502996E8 ; 8.205305673574716E7 ; 3.608837601635039E10 ; 34901.719999999965
99 ; 929706.8082987879 ; 4.0182960366944647E8 ; 8.298182475427267E7 ; 3.649019469980069E10 ; 35257.859999999964
100 ; 929838.0542362109 ; 4.018405239085882E8 ; 8.391153156257145E7 ; 3.689202430347014E10 ; 35613.99999999996
101 ; 929876.8005193177 ; 4.018514433464649E8 ; 8.484136961680767E7 ; 3.729386482737872E10 ; 35970.13999999996
102 ; 932902.9509048776 ; 4.018623611830915E8 ; 8.577124641732699E7 ; 3.769571627072519E10 ; 36326.27999999996
103 ; 933205.8059617456 ; 4.018732766389011E8 ; 8.670414936823186E7 ; 3.809757863190828E10 ; 36682.41999999996
104 ; 934148.3073433861 ; 4.0188418895392597E8 ; 8.76373551741936E7 ; 3.849945190854718E10 ; 37038.55999999996
105 ; 933868.4830749033 ; 4.018950973870187E8 ; 8.857150348153698E7 ; 3.890133609750111E10 ; 37394.69999999996
106 ; 934212.3788593103 ; 4.019060012151077E8 ; 8.950537196461189E7 ; 3.930323119488812E10 ; 37750.83999999996
107 ; 935698.7936512846 ; 4.019168997324877E8 ; 9.04395843434712E7 ; 3.970513719610323E10 ; 38106.97999999996
108 ; 934569.4747462935 ; 4.0192779225014246E8 ; 9.137528313712248E7 ; 4.0107054095835724E10 ; 38463.11999999996
109 ; 937205.9333322298 ; 4.019386780950984E8 ; 9.230985261186877E7 ; 4.050898188808587E10 ; 38819.25999999996
110 ; 936940.9978511344 ; 4.019495566098077E8 ; 9.3247058545201E7 ; 4.091092056618097E10 ; 39175.39999999996
111 ; 940490.293813188 ; 4.019604271515597E8 ; 9.418399954305214E7 ; 4.131287012279078E10 ; 39531.53999999996
112 ; 940138.922578922 ; 4.019712890919179E8 ; 9.512448983686532E7 ; 4.171483054994234E10 ; 39887.67999999996
113 ; 938238.901956769 ; 4.019821418161836E8 ; 9.606462875944424E7 ; 4.2116801839034256E10 ; 40243.819999999956
114 ; 938884.0049465091 ; 4.019929847228826E8 ; 9.7002867661401E7 ; 4.251878398085044E10 ; 40599.959999999955
115 ; 940252.4222619728 ; 4.0200381722327507E8 ; 9.794175166634752E7 ; 4.2920776965573326E10 ; 40956.099999999955
116 ; 939155.6216917705 ; 4.020146387408874E8 ; 9.888200408860949E7 ; 4.33227807827966E10 ; 41312.239999999954
117 ; 942089.6079202136 ; 4.0202544871106476E8 ; 9.982115971030125E7 ; 4.372479542153749E10 ; 41668.379999999954
118 ; 941646.3890630095 ; 4.02036246580543E8 ; 1.0076324931822146E8 ; 4.412682087024856E10 ; 42024.51999999995
119 ; 943370.942600872 ; 4.0204703180703986E8 ; 1.0170489570728448E8 ; 4.45288571168291E10 ; 42380.65999999995
120 ; 943373.9414299597 ; 4.0205780385886383E8 ; 1.0264826664988536E8 ; 4.493090414863614E10 ; 42736.79999999995
121 ; 944742.6783989477 ; 4.0206856221453995E8 ; 1.0359164059131531E8 ; 4.5332961952495E10 ; 43092.93999999995
122 ; 944295.5092965965 ; 4.020793063624518E8 ; 1.0453638326971427E8 ; 4.573503051470954E10 ; 43449.07999999995
123 ; 943161.381666877 ; 4.0209003580049956E8 ; 1.0548067877901086E8 ; 4.613710982107199E10 ; 43805.21999999995
124 ; 944623.3690319518 ; 4.021007500357716E8 ; 1.0642384016067775E8 ; 4.653919985687249E10 ; 44161.35999999995
125 ; 941993.1722919581 ; 4.021114485842314E8 ; 1.073684635297097E8 ; 4.6941300606908264E10 ; 44517.49999999995
126 ; 941357.8299240514 ; 4.021221309704169E8 ; 1.0831045670200166E8 ; 4.734341205549249E10 ; 44873.63999999995
127 ; 939728.6301765227 ; 4.02132796727153E8 ; 1.0925181453192571E8 ; 4.7745534186462906E10 ; 45229.77999999995
128 ; 938077.5855875089 ; 4.021434453952762E8 ; 1.1019154316210224E8 ; 4.8147666983190056E10 ; 45585.91999999995
129 ; 938690.6163492008 ; 4.021540765233706E8 ; 1.1112962074768974E8 ; 4.8549810428585335E10 ; 45942.05999999995
130 ; 938036.5217797429 ; 4.021646896675153E8 ; 1.1206831136403894E8 ; 4.89519645051087E10 ; 46298.199999999946
131 ; 936244.5825458319 ; 4.021752843910418E8 ; 1.1300634788581869E8 ; 4.935412919477622E10 ; 46654.339999999946
132 ; 936891.2232919063 ; 4.021858602643024E8 ; 1.1394259246836452E8 ; 4.975630447916727E10 ; 47010.479999999945
133 ; 937143.7477165638 ; 4.0219641686444676E8 ; 1.1487948369165643E8 ; 5.015849033943157E10 ; 47366.619999999944
134 ; 936782.1875445126 ; 4.0220695377520925E8 ; 1.1581662743937299E8 ; 5.056068675629602E10 ; 47722.759999999944
135 ; 938302.427781409 ; 4.022174705867037E8 ; 1.167534096269175E8 ; 5.096289371007123E10 ; 48078.89999999994
136 ; 937196.4743694785 ; 4.022279668952273E8 ; 1.176917120546989E8 ; 5.136511118065793E10 ; 48435.03999999994
137 ; 936483.375863027 ; 4.02238442303072E8 ; 1.1862890852906838E8 ; 5.1767339147553154E10 ; 48791.17999999994
138 ; 935471.4889368389 ; 4.0224889641834396E8 ; 1.1956539190493141E8 ; 5.2169577589856224E10 ; 49147.31999999994
139 ; 936866.2200983989 ; 4.0225932885479E8 ; 1.2050086339386825E8 ; 5.257182648627457E10 ; 49503.45999999994
140 ; 933778.0313772492 ; 4.022697392316309E8 ; 1.2143772961396666E8 ; 5.297408581512936E10 ; 49859.59999999994
141 ; 933816.0891205743 ; 4.022801271734017E8 ; 1.2237150764534391E8 ; 5.3376355554360985E10 ; 50215.73999999994
142 ; 933036.3331547583 ; 4.022904923097981E8 ; 1.233053237344645E8 ; 5.3778635681534386E10 ; 50571.87999999994
143 ; 935878.0511735489 ; 4.023008342755288E8 ; 1.2423836006761925E8 ; 5.4180926173844185E10 ; 50928.01999999994
144 ; 932535.46324468 ; 4.023111527101742E8 ; 1.251742381187928E8 ; 5.458322700811971E10 ; 51284.15999999994
145 ; 933434.3898814847 ; 4.0232144725804996E8 ; 1.2610677358203748E8 ; 5.498553816082989E10 ; 51640.29999999994
146 ; 936093.004389783 ; 4.0233171756807655E8 ; 1.2704020797191897E8 ; 5.538785960808794E10 ; 51996.43999999994
147 ; 936533.2916215414 ; 4.0234196329365325E8 ; 1.2797630097630875E8 ; 5.579019132565601E10 ; 52352.579999999936
148 ; 938485.8793246896 ; 4.0235218409253734E8 ; 1.2891283426793028E8 ; 5.619253328894967E10 ; 52708.719999999936
149 ; 939458.1500302163 ; 4.023623796267284E8 ; 1.2985132014725497E8 ; 5.6594885473042206E10 ; 53064.859999999935
150 ; 943813.1672522922 ; 4.0237254956235594E8 ; 1.3079077829728518E8 ; 5.699724785266894E10 ; 53420.999999999935
151 ; 940750.864523583 ; 4.0238269356957257E8 ; 1.3173459146453747E8 ; 5.739962040223129E10 ; 53777.139999999934
152 ; 942963.8161150257 ; 4.023928113224503E8 ; 1.3267534232906106E8 ; 5.7802003095800865E10 ; 54133.27999999993
153 ; 944468.5666082661 ; 4.024029024988812E8 ; 1.3361830614517608E8 ; 5.8204395907123314E10 ; 54489.41999999993
154 ; 944773.9552310948 ; 4.024129667804822E8 ; 1.3456277471178436E8 ; 5.860679880962219E10 ; 54845.55999999993
155 ; 950548.8700529826 ; 4.0242300385250235E8 ; 1.3550754866701546E8 ; 5.900921177640267E10 ; 55201.69999999993
156 ; 949166.2185537436 ; 4.024330134037346E8 ; 1.3645809753706846E8 ; 5.941163478025517E10 ; 55557.83999999993
157 ; 951592.2452922491 ; 4.0244299512643087E8 ; 1.374072637556222E8 ; 5.9814067793658905E10 ; 55913.97999999993
158 ; 953363.7003528225 ; 4.024529487162193E8 ; 1.3835885600091445E8 ; 6.021651078878534E10 ; 56270.11999999993
159 ; 952362.207385103 ; 4.024628738720257E8 ; 1.3931221970126727E8 ; 6.061896373750156E10 ; 56626.25999999993
160 ; 954085.4468348268 ; 4.024727702959974E8 ; 1.4026458190865237E8 ; 6.102142661137358E10 ; 56982.39999999993
161 ; 957568.5963509782 ; 4.024826376934295E8 ; 1.412186673554872E8 ; 6.142389938166958E10 ; 57338.53999999993
162 ; 959068.1692677373 ; 4.0249247577269506E8 ; 1.4217623595183817E8 ; 6.182638201936301E10 ; 57694.67999999993
163 ; 957688.9230680456 ; 4.0250228424517626E8 ; 1.431353041211059E8 ; 6.2228874495135704E10 ; 58050.81999999993
164 ; 958247.4982464949 ; 4.0251206282519925E8 ; 1.4409299304417396E8 ; 6.263137677938088E10 ; 58406.95999999993
165 ; 959285.7966923516 ; 4.025218112299712E8 ; 1.4505124054242045E8 ; 6.3033888842206085E10 ; 58763.099999999926
166 ; 960337.900710863 ; 4.025315291795187E8 ; 1.460105263391128E8 ; 6.343641065343606E10 ; 59119.239999999925
167 ; 961748.9291422027 ; 4.025412163966299E8 ; 1.4697086423982364E8 ; 6.383894218261558E10 ; 59475.379999999925
168 ; 962558.7090125072 ; 4.025508726067977E8 ; 1.4793261316896585E8 ; 6.424148339901221E10 ; 59831.519999999924
169 ; 965172.1264879791 ; 4.0256049753816473E8 ; 1.4889517187797835E8 ; 6.4644034271619E10 ; 60187.65999999992
170 ; 966223.3672592859 ; 4.0257009092147136E8 ; 1.4986034400446633E8 ; 6.5046594769157166E10 ; 60543.79999999992
171 ; 965921.2098985903 ; 4.025796524900048E8 ; 1.5082656737172562E8 ; 6.5449164860078636E10 ; 60899.93999999992
172 ; 968951.0995736336 ; 4.025891819795501E8 ; 1.517924885816242E8 ; 6.585174451256864E10 ; 61256.07999999992
173 ; 969154.6210021994 ; 4.025986791283432E8 ; 1.5276143968119785E8 ; 6.6254333694548195E10 ; 61612.21999999992
174 ; 973035.4069156043 ; 4.026081436770251E8 ; 1.5373059430220005E8 ; 6.665693237367654E10 ; 61968.35999999992
175 ; 973526.9316130423 ; 4.026175753685982E8 ; 1.5470362970911565E8 ; 6.705954051735356E10 ; 62324.49999999992
176 ; 974799.5901455064 ; 4.0262697394838405E8 ; 1.5567715664072868E8 ; 6.746215809272216E10 ; 62680.63999999992
177 ; 976096.9516697743 ; 4.02636339163982E8 ; 1.5665195623087418E8 ; 6.786478506667055E10 ; 63036.77999999992
