CSV File for the Network on Day 244
1 - Minute m 
2 - Power Consumed at minute m 
3 - Power Produced at minute m 
4 - Energy Consumed since the beginning of the day 
5 - Energy Produced since the beginning of the day 
6 - Energy Lost since the beginning of the day 
 
0 ; 945111.6985414529 ; 2.106319345244043E8 ; 0.0 ; 0.0 ; 0.0
1 ; 951799.652913954 ; 2.1093632176562726E8 ; 945111.6985414529 ; 2.106319345244043E8 ; 356.14
2 ; 957348.1283844864 ; 2.1185838904551774E8 ; 1896911.3514554068 ; 4.2156825629003155E8 ; 712.28
3 ; 959271.144112865 ; 2.1339815204743564E8 ; 2854259.479839893 ; 6.334266453355494E8 ; 1068.42
4 ; 964336.2971298966 ; 2.1555562547097826E8 ; 3813530.623952758 ; 8.46824797382985E8 ; 1424.56
5 ; 968486.9878881618 ; 2.1833082276356387E8 ; 4777866.921082655 ; 1.0623804228539633E9 ; 1780.6999999999998
6 ; 973459.5349139607 ; 2.2172375585491204E8 ; 5746353.908970817 ; 1.280711245617527E9 ; 2136.8399999999997
7 ; 978668.5421640526 ; 2.25734434905222E8 ; 6719813.443884778 ; 1.502435001472439E9 ; 2492.9799999999996
8 ; 980562.909641115 ; 2.303628680784521E8 ; 7698481.986048831 ; 1.728169436377661E9 ; 2849.1199999999994
9 ; 984627.4976348232 ; 2.3560906135187238E8 ; 8679044.895689946 ; 1.958532304456113E9 ; 3205.2599999999993
10 ; 988817.3846984672 ; 2.4147301837190711E8 ; 9663672.393324768 ; 2.1941413658079853E9 ; 3561.399999999999
11 ; 989935.2864475382 ; 2.4795474036421812E8 ; 1.0652489778023235E7 ; 2.4356143841798925E9 ; 3917.539999999999
12 ; 993065.302772626 ; 2.550542261031435E8 ; 1.1642425064470774E7 ; 2.683569124544111E9 ; 4273.679999999999
13 ; 994892.0100603476 ; 2.62771471942259E8 ; 1.26354903672434E7 ; 2.9386233506472545E9 ; 4629.82
14 ; 999376.6569079693 ; 2.711064719042947E8 ; 1.3630382377303747E7 ; 3.2013948225895133E9 ; 4985.96
15 ; 1004909.3640066478 ; 2.800592178252922E8 ; 1.4629759034211718E7 ; 3.472501294493808E9 ; 5342.1
16 ; 1006605.6640723634 ; 2.896296995450523E8 ; 1.5634668398218365E7 ; 3.7525605123191E9 ; 5698.240000000001
17 ; 1010225.6789350988 ; 2.9981790513385534E8 ; 1.6641274062290728E7 ; 4.042190211864152E9 ; 6054.380000000001
18 ; 1013169.8981781026 ; 3.106238211442832E8 ; 1.7651499741225827E7 ; 4.342008116998007E9 ; 6410.520000000001
19 ; 1016071.5311930225 ; 3.220474328767383E8 ; 1.866466963940393E7 ; 4.65263193814229E9 ; 6766.660000000002
20 ; 1019372.4002221524 ; 3.34088724647861E8 ; 1.9680741170596953E7 ; 4.974679371019029E9 ; 7122.800000000002
21 ; 1022612.9559612446 ; 3.4674768005229986E8 ; 2.0700113570819106E7 ; 5.308768095666889E9 ; 7478.940000000002
22 ; 1028156.7154452555 ; 3.6002428220999396E8 ; 2.1722726526780352E7 ; 5.655515775719189E9 ; 7835.080000000003
23 ; 1029342.061285933 ; 3.7391851399303126E8 ; 2.2750883242225606E7 ; 6.015540057929183E9 ; 8191.220000000003
24 ; 1033388.0975462064 ; 3.884303582280836E8 ; 2.3780225303511538E7 ; 6.3894585719222145E9 ; 8547.360000000002
25 ; 1038526.4425403174 ; 4.0093587966856813E8 ; 2.4813613401057743E7 ; 6.777888930150298E9 ; 8903.500000000002
26 ; 1040369.084413667 ; 4.0094215721692634E8 ; 2.585213984359806E7 ; 7.178824809818867E9 ; 9259.640000000001
27 ; 1044954.6481294733 ; 4.0094871309618485E8 ; 2.6892508928011727E7 ; 7.579766967035793E9 ; 9615.78
28 ; 1046893.0328378207 ; 4.009555314400308E8 ; 2.79374635761412E7 ; 7.980715680131978E9 ; 9971.92
29 ; 1050430.9938145007 ; 4.0096259695275074E8 ; 2.898435660897902E7 ; 8.381671211572009E9 ; 10328.06
30 ; 1052004.5166539254 ; 4.0096989496211636E8 ; 3.0034787602793522E7 ; 8.78263380852476E9 ; 10684.199999999999
31 ; 1056168.9473744365 ; 4.0097741145438725E8 ; 3.1086792119447447E7 ; 9.183603703486876E9 ; 11040.339999999998
32 ; 1059248.2213546506 ; 4.0098513309411204E8 ; 3.2142961066821884E7 ; 9.584581114941263E9 ; 11396.479999999998
33 ; 1062703.543930894 ; 4.0099304723128664E8 ; 3.3202209288176537E7 ; 9.985566248035376E9 ; 11752.619999999997
34 ; 1065114.647416577 ; 4.010011418982356E8 ; 3.426491283210743E7 ; 1.0386559295266663E10 ; 12108.759999999997
35 ; 1068415.497746842 ; 4.0100940579833615E8 ; 3.533002747952401E7 ; 1.0787560437164898E10 ; 12464.899999999996
36 ; 1072151.6695799984 ; 4.010178282884488E8 ; 3.639844297727085E7 ; 1.1188569842963234E10 ; 12821.039999999995
37 ; 1072570.3279664523 ; 4.010263993566511E8 ; 3.747059464685085E7 ; 1.1589587671251682E10 ; 13177.179999999995
38 ; 1075985.7724943177 ; 4.0103510959662527E8 ; 3.85431649748173E7 ; 1.1990614070608334E10 ; 13533.319999999994
39 ; 1079066.5524412005 ; 4.0104395017981505E8 ; 3.9619150747311614E7 ; 1.2391649180204958E10 ; 13889.459999999994
40 ; 1080588.1945223785 ; 4.0105291282626534E8 ; 4.069821729975282E7 ; 1.2792693130384773E10 ; 14245.599999999993
41 ; 1082841.181136398 ; 4.010619897748713E8 ; 4.17788054942752E7 ; 1.3193746043211039E10 ; 14601.739999999993
42 ; 1084342.4958709578 ; 4.0107117375361276E8 ; 4.28616466754116E7 ; 1.359480803298591E10 ; 14957.879999999992
43 ; 1084279.6699845293 ; 4.010804579502132E8 ; 4.394598917128255E7 ; 1.3995879206739523E10 ; 15314.019999999991
44 ; 1088717.4312828686 ; 4.0108983598355556E8 ; 4.503026884126708E7 ; 1.4396959664689735E10 ; 15670.15999999999
45 ; 1090107.4459819482 ; 4.010993018760958E8 ; 4.611898627254995E7 ; 1.479804950067329E10 ; 16026.29999999999
46 ; 1092828.206894216 ; 4.011088500274394E8 ; 4.72090937185319E7 ; 1.5199148802549385E10 ; 16382.43999999999
47 ; 1095970.3944883076 ; 4.011184751891914E8 ; 4.830192192542612E7 ; 1.5600257652576824E10 ; 16738.57999999999
48 ; 1100253.7734326932 ; 4.0112817244113886E8 ; 4.939789231991442E7 ; 1.6001376127766016E10 ; 17094.71999999999
49 ; 1101101.7843868046 ; 4.011379371687928E8 ; 5.049814609334712E7 ; 1.6402504300207155E10 ; 17450.85999999999
50 ; 1099812.6280461554 ; 4.011477650422851E8 ; 5.159924787773392E7 ; 1.6803642237375948E10 ; 17806.99999999999
51 ; 1103135.9805760507 ; 4.0115765199659884E8 ; 5.269906050578008E7 ; 1.7204790002418232E10 ; 18163.13999999999
52 ; 1103811.9085759823 ; 4.011675942130908E8 ; 5.380219648635613E7 ; 1.760594765441483E10 ; 18519.279999999988
53 ; 1105555.6364932146 ; 4.011775881022583E8 ; 5.490600839493211E7 ; 1.800711524862792E10 ; 18875.419999999987
54 ; 1108935.8926668423 ; 4.011876302876934E8 ; 5.601156403142533E7 ; 1.8408292836730175E10 ; 19231.559999999987
55 ; 1106824.6824476942 ; 4.0119771759116125E8 ; 5.7120499924092166E7 ; 1.8809480467017868E10 ; 19587.699999999986
56 ; 1110146.5498998172 ; 4.012078470187421E8 ; 5.822732460653986E7 ; 1.9210678184609028E10 ; 19943.839999999986
57 ; 1112687.5240287369 ; 4.0121801574797E8 ; 5.933747115643968E7 ; 1.961188603162777E10 ; 20299.979999999985
58 ; 1113112.8166491636 ; 4.012282211159067E8 ; 6.045015868046841E7 ; 2.001310404737574E10 ; 20656.119999999984
59 ; 1114846.47859594 ; 4.012384606080874E8 ; 6.156327149711757E7 ; 2.0414332268491646E10 ; 21012.259999999984
60 ; 1116206.6582712696 ; 4.012487318482791E8 ; 6.2678117975713514E7 ; 2.081557072909973E10 ; 21368.399999999983
61 ; 1120385.5592241164 ; 4.012590325889944E8 ; 6.379432463398478E7 ; 2.121681946094801E10 ; 21724.539999999983
62 ; 1120858.2948763943 ; 4.0126936070270544E8 ; 6.4914710193208896E7 ; 2.1618078493537003E10 ; 22080.679999999982
63 ; 1123556.3154857086 ; 4.0127971417370886E8 ; 6.603556848808529E7 ; 2.2019347854239708E10 ; 22436.81999999998
64 ; 1123109.4977075213 ; 4.0129009109059036E8 ; 6.7159124803571E7 ; 2.2420627568413418E10 ; 22792.95999999998
65 ; 1125087.3466485767 ; 4.013004896392467E8 ; 6.828223430127852E7 ; 2.282191765950401E10 ; 23149.09999999998
66 ; 1127111.3477773175 ; 4.013109080964209E8 ; 6.940732164792709E7 ; 2.3223218149143257E10 ; 23505.23999999998
67 ; 1128942.6464205142 ; 4.013213448237127E8 ; 7.053443299570441E7 ; 2.3624529057239677E10 ; 23861.37999999998
68 ; 1129377.714149482 ; 4.0133179826202786E8 ; 7.166337564212492E7 ; 2.402585040206339E10 ; 24217.51999999998
69 ; 1131349.4663604104 ; 4.013422669264313E8 ; 7.27927533562744E7 ; 2.4427182200325417E10 ; 24573.659999999978
70 ; 1130920.1029990055 ; 4.0135274940137446E8 ; 7.39241028226348E7 ; 2.4828524467251846E10 ; 24929.799999999977
71 ; 1133910.1372801256 ; 4.013632443362678E8 ; 7.50550229256338E7 ; 2.522987721665322E10 ; 25285.939999999977
72 ; 1134292.8904955836 ; 4.013737504413707E8 ; 7.618893306291392E7 ; 2.563124046098949E10 ; 25642.079999999976
73 ; 1134962.7661282897 ; 4.0138426648397565E8 ; 7.732322595340951E7 ; 2.6032614211430862E10 ; 25998.219999999976
74 ; 1135300.0503589585 ; 4.013947912848634E8 ; 7.84581887195378E7 ; 2.6433998477914837E10 ; 26354.359999999975
75 ; 1133441.8551919246 ; 4.014053237150083E8 ; 7.959348876989675E7 ; 2.68353932691997E10 ; 26710.499999999975
76 ; 1137514.579991703 ; 4.014158626925151E8 ; 8.072693062508868E7 ; 2.7236798592914707E10 ; 27066.639999999974
77 ; 1138000.7013923617 ; 4.014264071797689E8 ; 8.186444520508038E7 ; 2.7638214455607224E10 ; 27422.779999999973
78 ; 1137745.4493383507 ; 4.014369561807829E8 ; 8.300244590647274E7 ; 2.803964086278699E10 ; 27778.919999999973
79 ; 1137979.1953729058 ; 4.014475087387278E8 ; 8.414019135581109E7 ; 2.8441077818967773E10 ; 28135.059999999972
80 ; 1138592.9740411607 ; 4.014580639336308E8 ; 8.5278170551184E7 ; 2.88425253277065E10 ; 28491.19999999997
81 ; 1142971.1820287236 ; 4.014686208802297E8 ; 8.641676352522516E7 ; 2.9243983391640133E10 ; 28847.33999999997
82 ; 1144536.8237438004 ; 4.014791787259717E8 ; 8.755973470725389E7 ; 2.9645452012520363E10 ; 29203.47999999997
83 ; 1145967.706194166 ; 4.014897366491463E8 ; 8.87042715309977E7 ; 3.0046931191246334E10 ; 29559.61999999997
84 ; 1145330.1852590365 ; 4.0150029385714126E8 ; 8.985023923719186E7 ; 3.044842092789548E10 ; 29915.75999999997
85 ; 1146543.6871140786 ; 4.015108495848136E8 ; 9.099556942245089E7 ; 3.084992122175262E10 ; 30271.89999999997
86 ; 1146783.094628502 ; 4.0152140309296715E8 ; 9.214211310956496E7 ; 3.1251432071337433E10 ; 30628.039999999968
87 ; 1150388.145954015 ; 4.015319536669289E8 ; 9.328889620419346E7 ; 3.16529534744304E10 ; 30984.179999999968
88 ; 1149620.0459586533 ; 4.015425006152159E8 ; 9.443928435014747E7 ; 3.205448542809733E10 ; 31340.319999999967
89 ; 1147913.3577982858 ; 4.015530432682884E8 ; 9.558890439610612E7 ; 3.2456027928712543E10 ; 31696.459999999966
90 ; 1149143.3553216406 ; 4.0156358097738147E8 ; 9.67368177539044E7 ; 3.285758097198083E10 ; 32052.599999999966
91 ; 1150431.6872206333 ; 4.0157411311340976E8 ; 9.788596110922605E7 ; 3.3259144552958214E10 ; 32408.739999999965
92 ; 1153189.2175794288 ; 4.015846390659409E8 ; 9.903639279644668E7 ; 3.3660718666071625E10 ; 32764.879999999965
93 ; 1154377.0768605894 ; 4.015951582422323E8 ; 1.001895820140261E8 ; 3.4062303305137566E10 ; 33121.01999999997
94 ; 1153646.15923915 ; 4.0160567006632704E8 ; 1.013439590908867E8 ; 3.44638984633798E10 ; 33477.15999999997
95 ; 1153963.4424578175 ; 4.0161617397820467E8 ; 1.0249760525012584E8 ; 3.486550413344613E10 ; 33833.29999999997
96 ; 1154379.5092772597 ; 4.016266694329837E8 ; 1.0365156869258365E8 ; 3.526712030742433E10 ; 34189.439999999966
97 ; 1153406.0524075679 ; 4.016371559001715E8 ; 1.048059482018609E8 ; 3.5668746976857315E10 ; 34545.579999999965
98 ; 1154832.6246670524 ; 4.0164763286295915E8 ; 1.0595935425426847E8 ; 3.6070384132757484E10 ; 34901.719999999965
99 ; 1154566.5990155928 ; 4.016580998175577E8 ; 1.0711418687893552E8 ; 3.6472031765620445E10 ; 35257.859999999964
100 ; 1154172.4578430487 ; 4.016685562725735E8 ; 1.0826875347795111E8 ; 3.6873689865438E10 ; 35613.99999999996
101 ; 1155773.0771775057 ; 4.016790017484196E8 ; 1.0942292593579416E8 ; 3.727535842171058E10 ; 35970.13999999996
102 ; 1157833.7166042223 ; 4.0168943577676153E8 ; 1.1057869901297167E8 ; 3.7677037423459E10 ; 36326.27999999996
103 ; 1158817.2780960465 ; 4.016998578999945E8 ; 1.1173653272957589E8 ; 3.807872685923576E10 ; 36682.41999999996
104 ; 1157195.8597361792 ; 4.0171026767075026E8 ; 1.1289535000767194E8 ; 3.848042671713576E10 ; 37038.55999999996
105 ; 1159204.2068712614 ; 4.017206646514318E8 ; 1.1405254586740811E8 ; 3.888213698480651E10 ; 37394.69999999996
106 ; 1160191.013556789 ; 4.017310484137747E8 ; 1.1521175007427937E8 ; 3.928385764945794E10 ; 37750.83999999996
107 ; 1161288.3657385162 ; 4.017414185384321E8 ; 1.1637194108783616E8 ; 3.968558869787171E10 ; 38106.97999999996
108 ; 1158466.646657126 ; 4.0175177461458254E8 ; 1.1753322945357467E8 ; 4.008733011641014E10 ; 38463.11999999996
109 ; 1158544.519745835 ; 4.017621162395602E8 ; 1.186916961002318E8 ; 4.048908189102473E10 ; 38819.25999999996
110 ; 1159208.535931954 ; 4.017724430185042E8 ; 1.1985024061997764E8 ; 4.089084400726429E10 ; 39175.39999999996
111 ; 1160011.5872795265 ; 4.017827545640274E8 ; 1.210094491559096E8 ; 4.129261645028279E10 ; 39531.53999999996
112 ; 1159658.5324564863 ; 4.0179305049590296E8 ; 1.2216946074318913E8 ; 4.169439920484682E10 ; 39887.67999999996
113 ; 1160606.118818721 ; 4.0180333044076717E8 ; 1.2332911927564561E8 ; 4.209619225534272E10 ; 40243.819999999956
114 ; 1158242.4577379262 ; 4.0181359403183866E8 ; 1.2448972539446433E8 ; 4.2497995585783485E10 ; 40599.959999999955
115 ; 1158754.2675340832 ; 4.018238409086514E8 ; 1.2564796785220225E8 ; 4.289980917981532E10 ; 40956.099999999955
116 ; 1161771.1104297384 ; 4.0183407071680295E8 ; 1.2680672211973633E8 ; 4.3301633020723976E10 ; 41312.239999999954
117 ; 1156787.437647584 ; 4.0184428310771406E8 ; 1.2796849323016606E8 ; 4.370346709144078E10 ; 41668.379999999954
118 ; 1159943.8784878445 ; 4.018544777384025E8 ; 1.2912528066781364E8 ; 4.410531137454849E10 ; 42024.51999999995
119 ; 1159402.9705055961 ; 4.0186465427126646E8 ; 1.3028522454630148E8 ; 4.4507165852286896E10 ; 42380.65999999995
120 ; 1160372.4309218798 ; 4.018748123738811E8 ; 1.3144462751680708E8 ; 4.490903050655816E10 ; 42736.79999999995
121 ; 1160999.2806603264 ; 4.0188495171880305E8 ; 1.3260499994772896E8 ; 4.531090531893204E10 ; 43092.93999999995
122 ; 1160095.2810781922 ; 4.018950719833869E8 ; 1.337659992283893E8 ; 4.571279027065084E10 ; 43449.07999999995
123 ; 1160297.3499817408 ; 4.01905172849609E8 ; 1.3492609450946748E8 ; 4.6114685342634224E10 ; 43805.21999999995
124 ; 1159282.5577585616 ; 4.0191525400390136E8 ; 1.3608639185944924E8 ; 4.651659051548383E10 ; 44161.35999999995
125 ; 1156746.0926242252 ; 4.019253151369927E8 ; 1.372456744172078E8 ; 4.691850576948773E10 ; 44517.49999999995
126 ; 1155208.733436191 ; 4.0193535594375783E8 ; 1.3840242050983202E8 ; 4.7320431084624725E10 ; 44873.63999999995
127 ; 1154358.0096009916 ; 4.0194537612307423E8 ; 1.3955762924326822E8 ; 4.772236644056848E10 ; 45229.77999999995
128 ; 1154260.0601382114 ; 4.019553753776855E8 ; 1.4071198725286922E8 ; 4.812431181669156E10 ; 45585.91999999995
129 ; 1152624.6661389675 ; 4.0196535341407126E8 ; 1.4186624731300744E8 ; 4.8526267192069244E10 ; 45942.05999999995
130 ; 1151799.1014037954 ; 4.0197530994232345E8 ; 1.4301887197914642E8 ; 4.8928232545483315E10 ; 46298.199999999946
131 ; 1151836.0278900547 ; 4.019852446760284E8 ; 1.4417067108055022E8 ; 4.933020785542564E10 ; 46654.339999999946
132 ; 1150987.9188426011 ; 4.019951573321543E8 ; 1.4532250710844028E8 ; 4.973219310010166E10 ; 47010.479999999945
133 ; 1148419.3489211088 ; 4.020050476309444E8 ; 1.464734950272829E8 ; 5.0134188257433815E10 ; 47366.619999999944
134 ; 1148805.199083518 ; 4.020149152958145E8 ; 1.47621914376204E8 ; 5.053619330506476E10 ; 47722.759999999944
135 ; 1149577.3107038417 ; 4.0202476005325603E8 ; 1.4877071957528752E8 ; 5.093820822036057E10 ; 48078.89999999994
136 ; 1151173.4521377408 ; 4.0203458163274264E8 ; 1.4992029688599136E8 ; 5.1340232980413826E10 ; 48435.03999999994
137 ; 1148823.283824002 ; 4.0204437976664203E8 ; 1.510714703381291E8 ; 5.174226756204657E10 ; 48791.17999999994
138 ; 1147317.6616483997 ; 4.02054154190131E8 ; 1.522202936219531E8 ; 5.214431194181321E10 ; 49147.31999999994
139 ; 1147913.9744701178 ; 4.020639046411149E8 ; 1.533676112836015E8 ; 5.254636609600334E10 ; 49503.45999999994
140 ; 1145608.7739008814 ; 4.020736308601504E8 ; 1.545155252580716E8 ; 5.2948430000644455E10 ; 49859.59999999994
141 ; 1144569.9426369425 ; 4.02083332590372E8 ; 1.5566113403197247E8 ; 5.335050363150461E10 ; 50215.73999999994
142 ; 1142218.2244190765 ; 4.020930095774216E8 ; 1.568057039746094E8 ; 5.375258696409498E10 ; 50571.87999999994
143 ; 1144103.2783219425 ; 4.021026615693811E8 ; 1.579479221990285E8 ; 5.41546799736724E10 ; 50928.01999999994
144 ; 1140820.5488158744 ; 4.0211228831670856E8 ; 1.5909202547735044E8 ; 5.455678263524178E10 ; 51284.15999999994
145 ; 1143519.0752367172 ; 4.0212188957217634E8 ; 1.6023284602616632E8 ; 5.4958894923558495E10 ; 51640.29999999994
146 ; 1143784.3136524304 ; 4.0213146509081274E8 ; 1.6137636510140303E8 ; 5.536101681313067E10 ; 51996.43999999994
147 ; 1141522.4437637066 ; 4.021410146298456E8 ; 1.6252014941505545E8 ; 5.576314827822148E10 ; 52352.579999999936
148 ; 1143274.854025979 ; 4.0215053794864875E8 ; 1.6366167185881916E8 ; 5.6165289292851326E10 ; 52708.719999999936
149 ; 1145916.2906860674 ; 4.0216003480869067E8 ; 1.6480494671284515E8 ; 5.656743983079997E10 ; 53064.859999999935
150 ; 1146110.8732006673 ; 4.0216950497348523E8 ; 1.6595086300353122E8 ; 5.6969599865608665E10 ; 53420.999999999935
151 ; 1147421.0751199007 ; 4.021789482085445E8 ; 1.6709697387673187E8 ; 5.737176937058215E10 ; 53777.139999999934
152 ; 1145995.6948986468 ; 4.021883642813341E8 ; 1.682443949518518E8 ; 5.7773948318790695E10 ; 54133.27999999993
153 ; 1151147.4215263145 ; 4.0219775296122986E8 ; 1.6939039064675042E8 ; 5.817613668307203E10 ; 54489.41999999993
154 ; 1149076.889100001 ; 4.0220711401947653E8 ; 1.7054153806827673E8 ; 5.857833443603326E10 ; 54845.55999999993
155 ; 1151621.7770582286 ; 4.022164472291483E8 ; 1.7169061495737675E8 ; 5.8980541550052734E10 ; 55201.69999999993
156 ; 1153260.022003638 ; 4.02225752365111E8 ; 1.7284223673443496E8 ; 5.938275799728188E10 ; 55557.83999999993
157 ; 1152938.9253502246 ; 4.022350292039858E8 ; 1.739954967564386E8 ; 5.9784983749646996E10 ; 55913.97999999993
158 ; 1154541.686871114 ; 4.0224427752411443E8 ; 1.7514843568178883E8 ; 6.018721877885098E10 ; 56270.11999999993
159 ; 1155738.2259444743 ; 4.02253497105526E8 ; 1.7630297736865994E8 ; 6.05894630563751E10 ; 56626.25999999993
160 ; 1154810.0485850398 ; 4.022626877299049E8 ; 1.7745871559460443E8 ; 6.099171655348062E10 ; 56982.39999999993
161 ; 1159753.2624710773 ; 4.022718491805607E8 ; 1.7861352564318946E8 ; 6.1393979241210526E10 ; 57338.53999999993
162 ; 1156687.3685805767 ; 4.0228098124239826E8 ; 1.7977327890566054E8 ; 6.179625109039108E10 ; 57694.67999999993
163 ; 1157839.4215078894 ; 4.022900837018901E8 ; 1.8092996627424112E8 ; 6.2198532071633484E10 ; 58050.81999999993
164 ; 1159628.9901611586 ; 4.0229915634704924E8 ; 1.82087805695749E8 ; 6.260082215533537E10 ; 58406.95999999993
165 ; 1158227.3886390473 ; 4.023081989674034E8 ; 1.8324743468591017E8 ; 6.300312131168242E10 ; 58763.099999999926
166 ; 1161067.4304384263 ; 4.023172113539705E8 ; 1.844056620745492E8 ; 6.3405429510649826E10 ; 59119.239999999925
167 ; 1160113.737048205 ; 4.0232619329923475E8 ; 1.8556672950498763E8 ; 6.38077467220038E10 ; 59475.379999999925
168 ; 1160655.7581631243 ; 4.023351445971237E8 ; 1.8672684324203584E8 ; 6.421007291530303E10 ; 59831.519999999924
169 ; 1160377.252360342 ; 4.0234406504298675E8 ; 1.8788749900019896E8 ; 6.4612408059900154E10 ; 60187.65999999992
170 ; 1160842.9000178946 ; 4.023529544335741E8 ; 1.890478762525593E8 ; 6.501475212494314E10 ; 60543.79999999992
171 ; 1162698.4098262545 ; 4.023618125670166E8 ; 1.902087191525772E8 ; 6.541710507937671E10 ; 60899.93999999992
172 ; 1161983.1144504312 ; 4.023706392428067E8 ; 1.9137141756240344E8 ; 6.5819466891943726E10 ; 61256.07999999992
173 ; 1166403.117000836 ; 4.0237943426177955E8 ; 1.9253340067685387E8 ; 6.622183753118653E10 ; 61612.21999999992
174 ; 1167459.913377386 ; 4.0238819742609584E8 ; 1.936998037938547E8 ; 6.662421696544831E10 ; 61968.35999999992
175 ; 1168315.725964793 ; 4.0239692853922445E8 ; 1.948672637072321E8 ; 6.7026605162874405E10 ; 62324.49999999992
176 ; 1170203.6518056598 ; 4.0240562740592617E8 ; 1.9603557943319687E8 ; 6.742900209141363E10 ; 62680.63999999992
