CSV File for the Network on Day 99
1 - Minute m 
2 - Power Consumed at minute m 
3 - Power Produced at minute m 
4 - Energy Consumed since the beginning of the day 
5 - Energy Produced since the beginning of the day 
6 - Energy Lost since the beginning of the day 
 
0 ; 4573441.6789311 ; 2.1109311784365642E8 ; 0.0 ; 0.0 ; 0.0
1 ; 4577780.581747509 ; 2.113990243351698E8 ; 4573441.6789311 ; 2.1109311784365642E8 ; 356.14
2 ; 4581171.406242669 ; 2.1232249387596387E8 ; 9151222.260678608 ; 4.224921421788262E8 ; 712.28
3 ; 4583789.960004157 ; 2.1386352934801567E8 ; 1.3732393666921277E7 ; 6.3481463605479E8 ; 1068.42
4 ; 4590232.468700166 ; 2.1602213333297956E8 ; 1.8316183626925435E7 ; 8.486781654028057E8 ; 1424.56
5 ; 4592958.753250651 ; 2.1879830809825957E8 ; 2.29064160956256E7 ; 1.0647002987357852E9 ; 1780.6999999999998
6 ; 4595974.942636866 ; 2.2219205558454996E8 ; 2.7499374848876253E7 ; 1.283498606834045E9 ; 2136.8399999999997
7 ; 4601456.435746516 ; 2.2620337739500093E8 ; 3.209534979151312E7 ; 1.5056906624185948E9 ; 2492.9799999999996
8 ; 4606776.209814677 ; 2.3083227478615052E8 ; 3.6696806227259636E7 ; 1.7318940398135958E9 ; 2849.1199999999994
9 ; 4609356.761927198 ; 2.360787486607415E8 ; 4.130358243707431E7 ; 1.9627263145997462E9 ; 3205.2599999999993
10 ; 4613729.954689458 ; 2.4194279956252038E8 ; 4.5912939199001506E7 ; 2.1988050632604876E9 ; 3561.399999999999
11 ; 4617447.827195996 ; 2.4842442767308724E8 ; 5.0526669153690964E7 ; 2.440747862823008E9 ; 3917.539999999999
12 ; 4619897.505541218 ; 2.5552363281084192E8 ; 5.514411698088696E7 ; 2.689172290496095E9 ; 4273.679999999999
13 ; 4623885.432999998 ; 2.6324041443203795E8 ; 5.976401448642818E7 ; 2.944695923306937E9 ; 4629.82
14 ; 4629408.3352560755 ; 2.715747716339327E8 ; 6.438789991942818E7 ; 3.207936337738975E9 ; 4985.96
15 ; 4631871.83992795 ; 2.805267031599879E8 ; 6.901730825468425E7 ; 3.4795111093729076E9 ; 5342.1
16 ; 4633689.138423355 ; 2.9009620740705365E8 ; 7.364918009461221E7 ; 3.7600378125328956E9 ; 5698.240000000001
17 ; 4636743.049250385 ; 3.002832824344354E8 ; 7.828286923303556E7 ; 4.050134019939949E9 ; 6054.380000000001
18 ; 4640152.686640869 ; 3.110879259747293E8 ; 8.291961228228594E7 ; 4.350417302374385E9 ; 6410.520000000001
19 ; 4643377.887219289 ; 3.225101354462809E8 ; 8.755976496892682E7 ; 4.661505228349114E9 ; 6766.660000000002
20 ; 4647544.153207863 ; 3.3454990796711314E8 ; 9.220314285614611E7 ; 4.984015363795395E9 ; 7122.800000000002
21 ; 4648210.034092038 ; 3.472072403701502E8 ; 9.685068700935398E7 ; 5.318565271762508E9 ; 7478.940000000002
22 ; 4652454.516401528 ; 3.604821292195555E8 ; 1.0149889704344602E8 ; 5.665772512132659E9 ; 7835.080000000003
23 ; 4655353.120507342 ; 3.7437457082799613E8 ; 1.0615135155984755E8 ; 6.026254641352215E9 ; 8191.220000000003
24 ; 4660362.3080506325 ; 3.888845612746418E8 ; 1.108067046803549E8 ; 6.400629212180211E9 ; 8547.360000000002
25 ; 4662022.9901007665 ; 4.0138817822007513E8 ; 1.1546706698840553E8 ; 6.789513773454853E9 ; 8903.500000000002
26 ; 4666007.541636164 ; 4.01392512998983E8 ; 1.201290899785063E8 ; 7.190901951674929E9 ; 9259.640000000001
27 ; 4666973.899812316 ; 4.01397099689042E8 ; 1.2479509752014247E8 ; 7.592294464673912E9 ; 9615.78
28 ; 4671069.165368053 ; 4.014019336235465E8 ; 1.2946207141995478E8 ; 7.993691564362954E9 ; 9971.92
29 ; 4675636.448207906 ; 4.0140700999683285E8 ; 1.3413314058532283E8 ; 8.395093497986501E9 ; 10328.06
30 ; 4678974.339687501 ; 4.0141232388291323E8 ; 1.3880877703353074E8 ; 8.796500507983334E9 ; 10684.199999999999
31 ; 4682920.272356942 ; 4.014178702536808E8 ; 1.4348775137321824E8 ; 9.197912831866247E9 ; 11040.339999999998
32 ; 4683943.899633114 ; 4.014236439965698E8 ; 1.4817067164557517E8 ; 9.599330702119928E9 ; 11396.479999999998
33 ; 4687317.76162939 ; 4.0142963993156934E8 ; 1.5285461554520828E8 ; 1.0000754346116499E10 ; 11752.619999999997
34 ; 4689777.781911191 ; 4.014358528275069E8 ; 1.5754193330683768E8 ; 1.0402183986048069E10 ; 12108.759999999997
35 ; 4690995.423310119 ; 4.0144227741753286E8 ; 1.6223171108874887E8 ; 1.0803619838875576E10 ; 12464.899999999996
36 ; 4694184.89120221 ; 4.014489084137518E8 ; 1.66922706512059E8 ; 1.1205062116293108E10 ; 12821.039999999995
37 ; 4697980.681012458 ; 4.014557405209601E8 ; 1.716168914032612E8 ; 1.160651102470686E10 ; 13177.179999999995
38 ; 4699407.504376895 ; 4.0146276844946504E8 ; 1.7631487208427367E8 ; 1.200796676522782E10 ; 13533.319999999994
39 ; 4701774.445550541 ; 4.014699869269693E8 ; 1.8101427958865055E8 ; 1.2409429533677284E10 ; 13889.459999999994
40 ; 4703702.822014901 ; 4.0147739070951927E8 ; 1.857160540342011E8 ; 1.2810899520604254E10 ; 14245.599999999993
41 ; 4703652.059793012 ; 4.0148497459152234E8 ; 1.9041975685621598E8 ; 1.3212376911313772E10 ; 14601.739999999993
42 ; 4708071.707581373 ; 4.014927334148491E8 ; 1.95123408916009E8 ; 1.3613861885905294E10 ; 14957.879999999992
43 ; 4708378.114644832 ; 4.015006620770434E8 ; 1.9983148062359038E8 ; 1.4015354619320143E10 ; 15314.019999999991
44 ; 4710039.450474373 ; 4.015087555386671E8 ; 2.045398587382352E8 ; 1.4416855281397186E10 ; 15670.15999999999
45 ; 4713453.1203461215 ; 4.0151700882981545E8 ; 2.092498981887096E8 ; 1.4818364036935854E10 ; 16026.29999999999
46 ; 4713902.633108064 ; 4.0152541705583876E8 ; 2.1396335130905572E8 ; 1.5219881045765669E10 ; 16382.43999999999
47 ; 4718428.048097432 ; 4.015339754023123E8 ; 2.1867725394216377E8 ; 1.5621406462821508E10 ; 16738.57999999999
48 ; 4721496.133840506 ; 4.015426791392963E8 ; 2.233956819902612E8 ; 1.602294043822382E10 ; 17094.71999999999
49 ; 4720622.636968381 ; 4.015515236249306E8 ; 2.281171781241017E8 ; 1.6424483117363115E10 ; 17450.85999999999
50 ; 4719907.622693737 ; 4.015605043084086E8 ; 2.3283780076107007E8 ; 1.6826034640988047E10 ; 17806.99999999999
51 ; 4720022.590804221 ; 4.0156961673237467E8 ; 2.3755770838376382E8 ; 1.7227595145296455E10 ; 18163.13999999999
52 ; 4725727.0074897455 ; 4.015788565347903E8 ; 2.4227773097456804E8 ; 1.762916476202883E10 ; 18519.279999999988
53 ; 4723709.635786788 ; 4.015882194503114E8 ; 2.4700345798205778E8 ; 1.803074361856362E10 ; 18875.419999999987
54 ; 4724370.718865447 ; 4.015977013112195E8 ; 2.5172716761784458E8 ; 1.843233183801393E10 ; 19231.559999999987
55 ; 4726947.094365423 ; 4.016072980479468E8 ; 2.5645153833671004E8 ; 1.883392953932515E10 ; 19587.699999999986
56 ; 4726768.889922851 ; 4.016170056892347E8 ; 2.6117848543107545E8 ; 1.9235536837373096E10 ; 19943.839999999986
57 ; 4728563.676760594 ; 4.016268203619622E8 ; 2.659052543209983E8 ; 1.9637153843062332E10 ; 20299.979999999985
58 ; 4728875.227690589 ; 4.016367382906792E8 ; 2.706338179977589E8 ; 2.0038780663424294E10 ; 20656.119999999984
59 ; 4732093.491330715 ; 4.0164675579687715E8 ; 2.753626932254495E8 ; 2.0440417401714973E10 ; 21012.259999999984
60 ; 4733469.952898883 ; 4.016568692980288E8 ; 2.8009478671678025E8 ; 2.0842064157511852E10 ; 21368.399999999983
61 ; 4735295.227918427 ; 4.0166707530642486E8 ; 2.848282566696791E8 ; 2.124372102680988E10 ; 21724.539999999983
62 ; 4736098.536524057 ; 4.016773704278333E8 ; 2.8956355189759755E8 ; 2.1645388102116302E10 ; 22080.679999999982
63 ; 4734676.599809805 ; 4.016877513600082E8 ; 2.942996504341216E8 ; 2.2047065472544136E10 ; 22436.81999999998
64 ; 4740640.950938053 ; 4.0169821489106786E8 ; 2.9903432703393143E8 ; 2.2448753223904144E10 ; 22792.95999999998
65 ; 4737439.887347438 ; 4.017087578977647E8 ; 3.037749679848695E8 ; 2.285045143879521E10 ; 23149.09999999998
66 ; 4740823.852336871 ; 4.0171937734366447E8 ; 3.0851240787221694E8 ; 2.3252160196692978E10 ; 23505.23999999998
67 ; 4741787.305205656 ; 4.017300702772534E8 ; 3.132532317245538E8 ; 2.3653879574036644E10 ; 23861.37999999998
68 ; 4743968.526662993 ; 4.0174083382998633E8 ; 3.1799501902975947E8 ; 2.4055609644313896E10 ; 24217.51999999998
69 ; 4744634.867067971 ; 4.017516652142926E8 ; 3.227389875564225E8 ; 2.4457350478143883E10 ; 24573.659999999978
70 ; 4742573.896821976 ; 4.017625617215495E8 ; 3.2748362242349046E8 ; 2.4859102143358177E10 ; 24929.799999999977
71 ; 4744686.533910522 ; 4.017735207200365E8 ; 3.3222619632031244E8 ; 2.5260864705079727E10 ; 25285.939999999977
72 ; 4745700.522477424 ; 4.0178453965287876E8 ; 3.3697088285422295E8 ; 2.5662638225799763E10 ; 25642.079999999976
73 ; 4747213.5707927905 ; 4.0179561603598964E8 ; 3.417165833767004E8 ; 2.606442276545264E10 ; 25998.219999999976
74 ; 4746282.254993223 ; 4.018067474560196E8 ; 3.464637969474932E8 ; 2.646621838148863E10 ; 26354.359999999975
75 ; 4747468.294109908 ; 4.01817931568318E8 ; 3.512100792024864E8 ; 2.686802512894465E10 ; 26710.499999999975
76 ; 4746505.152208875 ; 4.018291660949145E8 ; 3.559575474965963E8 ; 2.7269843060512966E10 ; 27066.639999999974
77 ; 4746254.283481498 ; 4.018404488225239E8 ; 3.6070405264880514E8 ; 2.767167222660788E10 ; 27422.779999999973
78 ; 4745715.449946681 ; 4.018517776005806E8 ; 3.654503069322866E8 ; 2.8073512675430405E10 ; 27778.919999999973
79 ; 4745778.789567459 ; 4.0186315033930457E8 ; 3.701960223822333E8 ; 2.8475364453030987E10 ; 28135.059999999972
80 ; 4749154.127196595 ; 4.018745650078032E8 ; 3.749418011718008E8 ; 2.8877227603370293E10 ; 28491.19999999997
81 ; 4748300.982332396 ; 4.018860196322112E8 ; 3.796909552989974E8 ; 2.9279102168378098E10 ; 28847.33999999997
82 ; 4749324.010178187 ; 4.018975122938707E8 ; 3.844392562813298E8 ; 2.9680988188010307E10 ; 29203.47999999997
83 ; 4750231.068105893 ; 4.019090411275531E8 ; 3.89188580291508E8 ; 3.0082885700304176E10 ; 29559.61999999997
84 ; 4750218.547232635 ; 4.019206043197247E8 ; 3.939388113596139E8 ; 3.048479474143173E10 ; 29915.75999999997
85 ; 4752034.032371024 ; 4.0193220010685563E8 ; 3.986890299068465E8 ; 3.0886715345751453E10 ; 30271.89999999997
86 ; 4750409.974230366 ; 4.0194382677377474E8 ; 4.0344106393921757E8 ; 3.128864754585831E10 ; 30628.039999999968
87 ; 4751290.785062609 ; 4.019554826520691E8 ; 4.081914739134479E8 ; 3.1690591372632084E10 ; 30984.179999999968
88 ; 4750843.6428450225 ; 4.0196716611852896E8 ; 4.129427646985105E8 ; 3.2092546855284153E10 ; 31340.319999999967
89 ; 4751073.952957385 ; 4.0197887559363866E8 ; 4.1769360834135556E8 ; 3.2494514021402683E10 ; 31696.459999999966
90 ; 4752025.156178086 ; 4.01990609540112E8 ; 4.2244468229431295E8 ; 3.2896492896996323E10 ; 32052.599999999966
91 ; 4751240.84221631 ; 4.020023664614738E8 ; 4.27196707450491E8 ; 3.3298483506536434E10 ; 32408.739999999965
92 ; 4748924.189740335 ; 4.020141449006841E8 ; 4.319479482927073E8 ; 3.370048587299791E10 ; 32764.879999999965
93 ; 4750732.075076231 ; 4.020259434388076E8 ; 4.366968724824477E8 ; 3.4102500017898594E10 ; 33121.01999999997
94 ; 4752098.055787548 ; 4.0203776069372547E8 ; 4.414476045575239E8 ; 3.45045259613374E10 ; 33477.15999999997
95 ; 4750602.534583485 ; 4.0204959531888974E8 ; 4.4619970261331147E8 ; 3.490656372203113E10 ; 33833.29999999997
96 ; 4747219.040095874 ; 4.0206144600211906E8 ; 4.50950305147895E8 ; 3.530861331735002E10 ; 34189.439999999966
97 ; 4748952.987108202 ; 4.0207331146443474E8 ; 4.5569752418799084E8 ; 3.571067476335214E10 ; 34545.579999999965
98 ; 4747778.831866519 ; 4.02085190458937E8 ; 4.604464771750991E8 ; 3.6112748074816574E10 ; 34901.719999999965
99 ; 4749072.4472425515 ; 4.020970817697191E8 ; 4.651942560069656E8 ; 3.651483326527551E10 ; 35257.859999999964
100 ; 4748150.833455484 ; 4.021089842108201E8 ; 4.6994332845420814E8 ; 3.6916930347045235E10 ; 35613.99999999996
101 ; 4750848.44695986 ; 4.0212089662521255E8 ; 4.7469147928766364E8 ; 3.731903933125606E10 ; 35970.13999999996
102 ; 4746737.252821798 ; 4.0213281788382816E8 ; 4.794423277346235E8 ; 3.772116022788127E10 ; 36326.27999999996
103 ; 4745819.2927891 ; 4.021447468846153E8 ; 4.841890649874453E8 ; 3.81232930457651E10 ; 36682.41999999996
104 ; 4748001.623892897 ; 4.0215668255163246E8 ; 4.889348842802344E8 ; 3.852543779264971E10 ; 37038.55999999996
105 ; 4745672.267418894 ; 4.021686238341722E8 ; 4.936828859041273E8 ; 3.892759447520135E10 ; 37394.69999999996
106 ; 4744341.564939182 ; 4.0218056970591784E8 ; 4.984285581715462E8 ; 3.932976309903552E10 ; 37750.83999999996
107 ; 4747155.606796658 ; 4.0219251916413003E8 ; 5.031728997364854E8 ; 3.973194366874144E10 ; 38106.97999999996
108 ; 4747080.355826988 ; 4.022044712288629E8 ; 5.079200553432821E8 ; 4.013413618790557E10 ; 38463.11999999996
109 ; 4744703.026166991 ; 4.022164249422083E8 ; 5.126671356991091E8 ; 4.053634065913444E10 ; 38819.25999999996
110 ; 4742473.237867343 ; 4.0222837936756825E8 ; 5.1741183872527605E8 ; 4.0938557084076645E10 ; 39175.39999999996
111 ; 4743518.738801131 ; 4.022403335889533E8 ; 5.221543119631434E8 ; 4.1340785463444214E10 ; 39531.53999999996
112 ; 4742180.9656799035 ; 4.022522867103066E8 ; 5.2689783070194453E8 ; 4.1743025797033165E10 ; 39887.67999999996
113 ; 4741113.734314595 ; 4.022642378548529E8 ; 5.316400116676244E8 ; 4.214527808374347E10 ; 40243.819999999956
114 ; 4740519.442492759 ; 4.0227618616447127E8 ; 5.3638112540193903E8 ; 4.254754232159832E10 ; 40599.959999999955
115 ; 4740558.094232702 ; 4.022881307990911E8 ; 5.411216448444318E8 ; 4.2949818507762794E10 ; 40956.099999999955
116 ; 4741420.133238984 ; 4.023000709361093E8 ; 5.458622029386644E8 ; 4.335210663856188E10 ; 41312.239999999954
117 ; 4737220.277935551 ; 4.0231200576983035E8 ; 5.506036230719035E8 ; 4.375440670949799E10 ; 41668.379999999954
118 ; 4738251.408917318 ; 4.0232393451092553E8 ; 5.55340843349839E8 ; 4.415671871526782E10 ; 42024.51999999995
119 ; 4736869.882264965 ; 4.0233585638591266E8 ; 5.600790947587563E8 ; 4.455904264977875E10 ; 42380.65999999995
120 ; 4735606.959783116 ; 4.023477706366551E8 ; 5.648159646410213E8 ; 4.496137850616466E10 ; 42736.79999999995
121 ; 4734017.65158614 ; 4.023596765198784E8 ; 5.695515716008043E8 ; 4.5363726276801315E10 ; 43092.93999999995
122 ; 4734512.22793028 ; 4.0237157330670536E8 ; 5.742855892523905E8 ; 4.57660859533212E10 ; 43449.07999999995
123 ; 4733464.383742462 ; 4.023834602822076E8 ; 5.790201014803208E8 ; 4.61684575266279E10 ; 43805.21999999995
124 ; 4731955.957409476 ; 4.0239533674497396E8 ; 5.837535658640633E8 ; 4.657084098691011E10 ; 44161.35999999995
125 ; 4727790.6974628875 ; 4.024072020066943E8 ; 5.884855218214728E8 ; 4.697323632365508E10 ; 44517.49999999995
126 ; 4724405.764880105 ; 4.0241905539175856E8 ; 5.932133125189357E8 ; 4.737564352566177E10 ; 44873.63999999995
127 ; 4723228.124651609 ; 4.0243089623687065E8 ; 5.979377182838157E8 ; 4.7778062581053535E10 ; 45229.77999999995
128 ; 4719677.147611525 ; 4.024427238906759E8 ; 6.026609464084673E8 ; 4.8180493477290405E10 ; 45585.91999999995
129 ; 4716940.998545743 ; 4.0245453771340287E8 ; 6.073806235560788E8 ; 4.858293620118108E10 ; 45942.05999999995
130 ; 4717026.651915731 ; 4.0246633707651687E8 ; 6.120975645546246E8 ; 4.8985390738894485E10 ; 46298.199999999946
131 ; 4713645.631551617 ; 4.024781213623874E8 ; 6.168145912065403E8 ; 4.9387857075971E10 ; 46654.339999999946
132 ; 4712347.133575455 ; 4.024898899639666E8 ; 6.21528236838092E8 ; 4.979033519733339E10 ; 47010.479999999945
133 ; 4711075.4001306845 ; 4.0250164228447974E8 ; 6.262405839716674E8 ; 5.0192825087297356E10 ; 47366.619999999944
134 ; 4709110.935687599 ; 4.025133777371266E8 ; 6.30951659371798E8 ; 5.059532672958183E10 ; 47722.759999999944
135 ; 4707850.788967127 ; 4.025250957447939E8 ; 6.356607703074856E8 ; 5.099784010731896E10 ; 48078.89999999994
136 ; 4706855.304201122 ; 4.0253679573977757E8 ; 6.403686210964527E8 ; 5.140036520306376E10 ; 48435.03999999994
137 ; 4707063.989084308 ; 4.025484771635154E8 ; 6.450754764006538E8 ; 5.1802901998803535E10 ; 48791.17999999994
138 ; 4702967.023995655 ; 4.025601394663288E8 ; 6.497825403897382E8 ; 5.220545047596705E10 ; 49147.31999999994
139 ; 4701455.549476873 ; 4.0257178210717404E8 ; 6.544855074137338E8 ; 5.260801061543338E10 ; 49503.45999999994
140 ; 4698845.719403264 ; 4.0258340455340225E8 ; 6.591869629632107E8 ; 5.301058239754056E10 ; 49859.59999999994
141 ; 4696770.304680638 ; 4.025950062805277E8 ; 6.63885808682614E8 ; 5.341316580209396E10 ; 50215.73999999994
142 ; 4695069.568769189 ; 4.026065867720045E8 ; 6.685825789872946E8 ; 5.381576080837449E10 ; 50571.87999999994
143 ; 4693752.948150005 ; 4.02618145519011E8 ; 6.732776485560638E8 ; 5.421836739514649E10 ; 50928.01999999994
144 ; 4691971.764214197 ; 4.0262968202024215E8 ; 6.779714015042138E8 ; 5.4620985540665504E10 ; 51284.15999999994
145 ; 4689563.920454053 ; 4.0264119578170824E8 ; 6.82663373268428E8 ; 5.5023615222685745E10 ; 51640.29999999994
146 ; 4691477.34548541 ; 4.026526863165416E8 ; 6.87352937188882E8 ; 5.542625641846745E10 ; 51996.43999999994
147 ; 4686445.97629869 ; 4.026641531448097E8 ; 6.920444145343674E8 ; 5.5828909104784E10 ; 52352.579999999936
148 ; 4688240.403730175 ; 4.0267559579333436E8 ; 6.967308605106661E8 ; 5.62315732579288E10 ; 52708.719999999936
149 ; 4689420.085090576 ; 4.026870137955179E8 ; 7.014191009143963E8 ; 5.663424885372214E10 ; 53064.859999999935
150 ; 4687943.461367506 ; 4.0269840669117486E8 ; 7.061085209994868E8 ; 5.7036935867517654E10 ; 53420.999999999935
151 ; 4687277.1387363365 ; 4.0270977402636933E8 ; 7.107964644608543E8 ; 5.743963427420883E10 ; 53777.139999999934
152 ; 4688071.025991853 ; 4.027211153532585E8 ; 7.154837415995907E8 ; 5.78423440482352E10 ; 54133.27999999993
153 ; 4685349.362422589 ; 4.027324302299409E8 ; 7.201718126255825E8 ; 5.8245065163588455E10 ; 54489.41999999993
154 ; 4685856.534302554 ; 4.0274371822031045E8 ; 7.24857161988005E8 ; 5.86477975938184E10 ; 54845.55999999993
155 ; 4685729.114196312 ; 4.0275497889391464E8 ; 7.295430185223076E8 ; 5.905054131203871E10 ; 55201.69999999993
156 ; 4686274.893870418 ; 4.027662118258186E8 ; 7.342287476365039E8 ; 5.9453296290932625E10 ; 55557.83999999993
157 ; 4686461.664653092 ; 4.027774165964728E8 ; 7.389150225303744E8 ; 5.9856062502758446E10 ; 55913.97999999993
158 ; 4686364.319646563 ; 4.027885927915858E8 ; 7.436014841950275E8 ; 6.025883991935492E10 ; 56270.11999999993
159 ; 4684917.153004278 ; 4.027997400020009E8 ; 7.482878485146741E8 ; 6.066162851214651E10 ; 56626.25999999993
160 ; 4686974.070158486 ; 4.028108578235775E8 ; 7.529727656676784E8 ; 6.1064428252148506E10 ; 56982.39999999993
161 ; 4687377.164181594 ; 4.028219458570757E8 ; 7.576597397378368E8 ; 6.1467239109972084E10 ; 57338.53999999993
162 ; 4684034.504956549 ; 4.028330037080451E8 ; 7.623471169020184E8 ; 6.187006105582916E10 ; 57694.67999999993
163 ; 4680715.103370847 ; 4.028440309867177E8 ; 7.67031151406975E8 ; 6.227289405953721E10 ; 58050.81999999993
164 ; 4680831.386522441 ; 4.0285502730790365E8 ; 7.717118665103459E8 ; 6.2675738090523926E10 ; 58406.95999999993
165 ; 4680156.705353171 ; 4.028659922908907E8 ; 7.763926978968683E8 ; 6.307859311783183E10 ; 58763.099999999926
166 ; 4680573.78543231 ; 4.028769255593472E8 ; 7.810728546022215E8 ; 6.348145911012273E10 ; 59119.239999999925
167 ; 4679152.788223902 ; 4.028878267412282E8 ; 7.857534283876538E8 ; 6.3884336035682076E10 ; 59475.379999999925
168 ; 4678260.595932568 ; 4.0289869546868426E8 ; 7.904325811758777E8 ; 6.42872238624233E10 ; 59831.519999999924
169 ; 4678980.566211256 ; 4.029095313779739E8 ; 7.951108417718103E8 ; 6.469012255789198E10 ; 60187.65999999992
170 ; 4676748.0157750705 ; 4.029203341093782E8 ; 7.997898223380215E8 ; 6.509303208926996E10 ; 60543.79999999992
171 ; 4676693.432273681 ; 4.0293110330711883E8 ; 8.044665703537966E8 ; 6.549595242337933E10 ; 60899.93999999992
172 ; 4674929.550443027 ; 4.0294183861927825E8 ; 8.091432637860702E8 ; 6.5898883526686455E10 ; 61256.07999999992
173 ; 4674785.855632243 ; 4.0295253969772273E8 ; 8.138181933365133E8 ; 6.630182536530573E10 ; 61612.21999999992
174 ; 4675367.623748051 ; 4.0296320619802785E8 ; 8.184929791921455E8 ; 6.6704777905003456E10 ; 61968.35999999992
175 ; 4677063.26174647 ; 4.029738377794062E8 ; 8.231683468158935E8 ; 6.7107741111201485E10 ; 62324.49999999992
176 ; 4678060.094481641 ; 4.02984434104638E8 ; 8.2784541007764E8 ; 6.751071494898089E10 ; 62680.63999999992
177 ; 4677927.584201059 ; 4.029949948400028E8 ; 8.325234701721216E8 ; 6.7913699383085526E10 ; 63036.77999999992
