CSV File for the Network on Day 326
1 - Minute m 
2 - Power Consumed at minute m 
3 - Power Produced at minute m 
4 - Energy Consumed since the beginning of the day 
5 - Energy Produced since the beginning of the day 
6 - Energy Lost since the beginning of the day 
 
0 ; 4581028.620712718 ; 2.1150080537504524E8 ; 0.0 ; 0.0 ; 0.0
1 ; 4586729.760632259 ; 2.1180657991003394E8 ; 4581028.620712718 ; 2.1150080537504524E8 ; 356.14
2 ; 4591034.316315666 ; 2.127299337015962E8 ; 9167758.381344978 ; 4.233073852850792E8 ; 712.28
3 ; 4596599.855284694 ; 2.1427086889254403E8 ; 1.3758792697660644E7 ; 6.360373189866754E8 ; 1068.42
4 ; 4599374.136738312 ; 2.16429387393243E8 ; 1.835539255294534E7 ; 8.503081878792194E8 ; 1424.56
5 ; 4605864.466403592 ; 2.1920549087445158E8 ; 2.295476668968365E7 ; 1.0667375752724624E9 ; 1780.6999999999998
6 ; 4610633.486070957 ; 2.2259918076097828E8 ; 2.7560631156087242E7 ; 1.285943066146914E9 ; 2136.8399999999997
7 ; 4614152.523049619 ; 2.2661045822621495E8 ; 3.21712646421582E7 ; 1.5085422469078922E9 ; 2492.9799999999996
8 ; 4616848.062768999 ; 2.3123932418759274E8 ; 3.678541716520782E7 ; 1.735152705134107E9 ; 2849.1199999999994
9 ; 4621065.1344338525 ; 2.3648577930300432E8 ; 4.1402265227976814E7 ; 1.9663920293216999E9 ; 3205.2599999999993
10 ; 4623129.3072644435 ; 2.42349823968224E8 ; 4.6023330362410665E7 ; 2.2028778086247044E9 ; 3561.399999999999
11 ; 4629075.458239229 ; 2.4883145831535006E8 ; 5.064645966967511E7 ; 2.4452276325929284E9 ; 3917.539999999999
12 ; 4632607.629408391 ; 2.5593068221228415E8 ; 5.527553512791434E7 ; 2.6940590909082785E9 ; 4273.679999999999
13 ; 4636200.799020241 ; 2.6364749526325196E8 ; 5.990814275732273E7 ; 2.9499897731205626E9 ; 4629.82
14 ; 4638434.866050443 ; 2.71981896810361E8 ; 6.454434355634297E7 ; 3.2136372683838143E9 ; 4985.96
15 ; 4643301.0703922 ; 2.8093388593617994E8 ; 6.918277842239341E7 ; 3.4856191651941752E9 ; 5342.1
16 ; 4644719.2733827615 ; 2.905034614673171E8 ; 7.382607949278562E7 ; 3.7665530511303554E9 ; 5698.240000000001
17 ; 4647107.899982885 ; 3.006906219789638E8 ; 7.847079876616839E7 ; 4.0570565125976725E9 ; 6054.380000000001
18 ; 4652205.570516225 ; 3.1149536580036163E8 ; 8.311790666615127E7 ; 4.357747134576636E9 ; 6410.520000000001
19 ; 4654745.443616213 ; 3.2291769102114505E8 ; 8.77701122366675E7 ; 4.669242500376998E9 ; 6766.660000000002
20 ; 4658168.915919923 ; 3.3495759549850196E8 ; 9.242485768028371E7 ; 4.992160191398143E9 ; 7122.800000000002
21 ; 4661420.038058909 ; 3.476150768650912E8 ; 9.708302659620364E7 ; 5.327117786896645E9 ; 7478.940000000002
22 ; 4663698.580023851 ; 3.608901325376481E8 ; 1.0174444663426255E8 ; 5.674732863761736E9 ; 7835.080000000003
23 ; 4667857.210137867 ; 3.747827597262084E8 ; 1.064081452142864E8 ; 6.035622996299384E9 ; 8191.220000000003
24 ; 4672563.756446332 ; 3.8929295544387305E8 ; 1.1107600242442428E8 ; 6.410405756025593E9 ; 8547.360000000002
25 ; 4677886.828689096 ; 4.0179679831340754E8 ; 1.1574856618087061E8 ; 6.799698711469466E9 ; 8903.500000000002
26 ; 4680895.503568182 ; 4.018013806516517E8 ; 1.204264530095597E8 ; 7.201495509782874E9 ; 9259.640000000001
27 ; 4683948.630706644 ; 4.0180623753025496E8 ; 1.251073485131279E8 ; 7.6032968904345255E9 ; 9615.78
28 ; 4687031.87115048 ; 4.0181136528038275E8 ; 1.2979129714383453E8 ; 8.005103127964781E9 ; 9971.92
29 ; 4689917.958210094 ; 4.018167600905248E8 ; 1.3447832901498502E8 ; 8.406914493245164E9 ; 10328.06
30 ; 4692288.080182986 ; 4.0182241801789844E8 ; 1.391682469731951E8 ; 8.80873125333569E9 ; 10684.199999999999
31 ; 4694547.386515606 ; 4.01828334999865E8 ; 1.438605350533781E8 ; 9.210553671353588E9 ; 11040.339999999998
32 ; 4699601.33173019 ; 4.018345068652965E8 ; 1.4855508243989372E8 ; 9.612382006353453E9 ; 11396.479999999998
33 ; 4699381.891600648 ; 4.018409293458278E8 ; 1.532546837716239E8 ; 1.001421651321875E10 ; 11752.619999999997
34 ; 4702603.611781909 ; 4.0184759808694005E8 ; 1.5795406566322455E8 ; 1.0416057442564577E10 ; 12108.759999999997
35 ; 4706369.6809683405 ; 4.0185450865882105E8 ; 1.6265666927500644E8 ; 1.0817905040651518E10 ; 12464.899999999996
36 ; 4707477.956340373 ; 4.018616565669584E8 ; 1.673630389559748E8 ; 1.1219759549310339E10 ; 12821.039999999995
37 ; 4710201.972497471 ; 4.018690372624215E8 ; 1.7207051691231516E8 ; 1.1621621205877296E10 ; 13177.179999999995
38 ; 4712617.812388895 ; 4.0187664615179753E8 ; 1.7678071888481262E8 ; 1.2023490243139717E10 ; 13533.319999999994
39 ; 4715595.351406732 ; 4.0188447860675156E8 ; 1.8149333669720152E8 ; 1.2425366889291515E10 ; 13889.459999999994
40 ; 4721031.366662626 ; 4.0189252997318214E8 ; 1.8620893204860824E8 ; 1.2827251367898268E10 ; 14245.599999999993
41 ; 4720453.972957359 ; 4.0190079557995534E8 ; 1.9092996341527086E8 ; 1.322914389787145E10 ; 14601.739999999993
42 ; 4723334.915460335 ; 4.0190927074719846E8 ; 1.9565041738822824E8 ; 1.3631044693451406E10 ; 14957.879999999992
43 ; 4723872.170656961 ; 4.0191795079414314E8 ; 2.003737523036886E8 ; 1.4032953964198605E10 ; 15314.019999999991
44 ; 4726307.507407946 ; 4.019268310465107E8 ; 2.0509762447434554E8 ; 1.4434871914992748E10 ; 15670.15999999999
45 ; 4727848.233678263 ; 4.019359068434361E8 ; 2.0982393198175347E8 ; 1.4836798746039259E10 ; 16026.29999999999
46 ; 4731660.212537223 ; 4.0194517354393035E8 ; 2.1455178021543172E8 ; 1.5238734652882694E10 ; 16382.43999999999
47 ; 4732504.648250727 ; 4.0195462653288496E8 ; 2.1928344042796895E8 ; 1.5640679826426624E10 ; 16738.57999999999
48 ; 4737632.35208863 ; 4.0196426122662485E8 ; 2.2401594507621968E8 ; 1.6042634452959509E10 ; 17094.71999999999
49 ; 4737187.276307296 ; 4.0197407307801825E8 ; 2.287535774283083E8 ; 1.6444598714186134E10 ; 17450.85999999999
50 ; 4736804.323984747 ; 4.0198405758115363E8 ; 2.334907647046156E8 ; 1.6846572787264153E10 ; 17806.99999999999
51 ; 4738746.162993607 ; 4.019942102755976E8 ; 2.3822756902860034E8 ; 1.7248556844845306E10 ; 18163.13999999999
52 ; 4738410.014667854 ; 4.020045267502472E8 ; 2.4296631519159395E8 ; 1.7650551055120903E10 ; 18519.279999999988
53 ; 4738273.18287458 ; 4.020150026467924E8 ; 2.477047252062618E8 ; 1.805255558187115E10 ; 18875.419999999987
54 ; 4744284.270167416 ; 4.0202563366280496E8 ; 2.524429983891364E8 ; 1.8454570584517944E10 ; 19231.559999999987
55 ; 4744767.046898969 ; 4.0203641555447084E8 ; 2.571872826593038E8 ; 1.8856596218180748E10 ; 19587.699999999986
56 ; 4745432.139688053 ; 4.0204734413898504E8 ; 2.6193204970620278E8 ; 1.9258632633735218E10 ; 19943.839999999986
57 ; 4743969.001375602 ; 4.020584152966248E8 ; 2.6667748184589082E8 ; 1.9660679977874203E10 ; 20299.979999999985
58 ; 4748185.059013698 ; 4.020696249725214E8 ; 2.7142145084726644E8 ; 2.0062738393170826E10 ; 20656.119999999984
59 ; 4748071.65035176 ; 4.020809691781479E8 ; 2.7616963590628016E8 ; 2.046480801814335E10 ; 21012.259999999984
60 ; 4750928.47972805 ; 4.020924439925403E8 ; 2.809177075566319E8 ; 2.0866888987321495E10 ; 21368.399999999983
61 ; 4752084.970041222 ; 4.02104045563271E8 ; 2.8566863603635997E8 ; 2.1268981431314034E10 ; 21724.539999999983
62 ; 4753718.84897029 ; 4.0211577010719097E8 ; 2.904207210064012E8 ; 2.1671085476877304E10 ; 22080.679999999982
63 ; 4753544.628082953 ; 4.021276139109584E8 ; 2.951744398553715E8 ; 2.2073201246984493E10 ; 22436.81999999998
64 ; 4755015.209829696 ; 4.0213957333136886E8 ; 2.999279844834544E8 ; 2.247532886089545E10 ; 22792.95999999998
65 ; 4756449.908810624 ; 4.0215164479550445E8 ; 3.046829996932841E8 ; 2.2877468434226818E10 ; 23149.09999999998
66 ; 4757732.2394706225 ; 4.021638248007157E8 ; 3.094394496020947E8 ; 2.3279620079022324E10 ; 23505.23999999998
67 ; 4759955.203501553 ; 4.0217610991445094E8 ; 3.141971818415653E8 ; 2.368178390382304E10 ; 23861.37999999998
68 ; 4760318.128041843 ; 4.021884967739476E8 ; 3.189571370450669E8 ; 2.408396001373749E10 ; 24217.51999999998
69 ; 4759674.54465369 ; 4.0220098208579767E8 ; 3.2371745517310876E8 ; 2.448614851051144E10 ; 24573.659999999978
70 ; 4762136.899592644 ; 4.022135626254E8 ; 3.284771297177625E8 ; 2.4888349492597237E10 ; 24929.799999999977
71 ; 4763526.386423351 ; 4.022262352363109E8 ; 3.332392666173551E8 ; 2.5290563055222637E10 ; 25285.939999999977
72 ; 4763516.151390922 ; 4.022389968295045E8 ; 3.3800279300377846E8 ; 2.5692789290458946E10 ; 25642.079999999976
73 ; 4763236.908788775 ; 4.0225184438255227E8 ; 3.4276630915516937E8 ; 2.6095028287288452E10 ; 25998.219999999976
74 ; 4765453.90884985 ; 4.0226477493873215E8 ; 3.4752954606395817E8 ; 2.6497280131671005E10 ; 26354.359999999975
75 ; 4765348.913669685 ; 4.0227778560607505E8 ; 3.52294999972808E8 ; 2.6899544906609737E10 ; 26710.499999999975
76 ; 4765914.722165559 ; 4.022908735563588E8 ; 3.570603488864777E8 ; 2.7301822692215813E10 ; 27066.639999999974
77 ; 4767172.965456732 ; 4.0230403602405477E8 ; 3.618262636086433E8 ; 2.770411356577217E10 ; 27422.779999999973
78 ; 4765191.335911025 ; 4.023172703052369E8 ; 3.665934365741E8 ; 2.8106417601796227E10 ; 27778.919999999973
79 ; 4766551.135219972 ; 4.023305737564573E8 ; 3.7135862791001105E8 ; 2.8508734872101463E10 ; 28135.059999999972
80 ; 4767979.880290772 ; 4.023439437935966E8 ; 3.7612517904523104E8 ; 2.891106544585792E10 ; 28491.19999999997
81 ; 4770942.223430521 ; 4.023573778906921E8 ; 3.808931589255218E8 ; 2.931340938965152E10 ; 28847.33999999997
82 ; 4768062.34732071 ; 4.023708735787513E8 ; 3.856641011489523E8 ; 2.9715766767542213E10 ; 29203.47999999997
83 ; 4769370.2089195335 ; 4.023844284445539E8 ; 3.9043216349627304E8 ; 3.0118137641120964E10 ; 29559.61999999997
84 ; 4771522.202345762 ; 4.0239804012944615E8 ; 3.9520153370519257E8 ; 3.0520522069565517E10 ; 29915.75999999997
85 ; 4769504.794478957 ; 4.0241170632813257E8 ; 3.9997305590753835E8 ; 3.0922920109694965E10 ; 30271.89999999997
86 ; 4772097.726758121 ; 4.0242542478746784E8 ; 4.047425607020173E8 ; 3.1325331816023098E10 ; 30628.039999999968
87 ; 4773370.106010236 ; 4.0243919330525124E8 ; 4.095146584287754E8 ; 3.1727757240810566E10 ; 30984.179999999968
88 ; 4771636.492405362 ; 4.024530097290278E8 ; 4.142880285347857E8 ; 3.2130196434115818E10 ; 31340.319999999967
89 ; 4771368.611844762 ; 4.024668719548976E8 ; 4.1905966502719104E8 ; 3.2532649443844845E10 ; 31696.459999999966
90 ; 4772430.0930369 ; 4.024807779263351E8 ; 4.238310336390358E8 ; 3.2935116315799744E10 ; 32052.599999999966
91 ; 4770136.43530217 ; 4.0249472563302207E8 ; 4.286034637320727E8 ; 3.3337597093726078E10 ; 32408.739999999965
92 ; 4773416.733338736 ; 4.02508713109694E8 ; 4.333736001673749E8 ; 3.37400918193591E10 ; 32764.879999999965
93 ; 4772712.259170395 ; 4.0252273843500215E8 ; 4.381470169007136E8 ; 3.4142600532468796E10 ; 33121.01999999997
94 ; 4773315.369278086 ; 4.025367997303932E8 ; 4.4291972915988404E8 ; 3.45451232709038E10 ; 33477.15999999997
95 ; 4772657.407431463 ; 4.0255089515900624E8 ; 4.476930445291621E8 ; 3.494766007063419E10 ; 33833.29999999997
96 ; 4771098.782947406 ; 4.0256502292458975E8 ; 4.524657019365936E8 ; 3.53502109657932E10 ; 34189.439999999966
97 ; 4770118.794054285 ; 4.025791812704374E8 ; 4.57236800719541E8 ; 3.575277598871779E10 ; 34545.579999999965
98 ; 4771187.279450842 ; 4.0259336847834486E8 ; 4.620069195135953E8 ; 3.615535516998823E10 ; 34901.719999999965
99 ; 4767077.1703658495 ; 4.0260758286758757E8 ; 4.667781067930461E8 ; 3.6557948538466576E10 ; 35257.859999999964
100 ; 4771835.512018871 ; 4.026218227939199E8 ; 4.71545183963412E8 ; 3.696055612133416E10 ; 35613.99999999996
101 ; 4771128.524354683 ; 4.02636086648596E8 ; 4.7631701947543085E8 ; 3.736317794412808E10 ; 35970.13999999996
102 ; 4771459.4876123415 ; 4.026503728574126E8 ; 4.8108814799978554E8 ; 3.776581403077668E10 ; 36326.27999999996
103 ; 4769398.556002567 ; 4.0266467987977374E8 ; 4.858596074873979E8 ; 3.8168464403634094E10 ; 36682.41999999996
104 ; 4771481.598629516 ; 4.0267900620777786E8 ; 4.9062900604340047E8 ; 3.857112908351387E10 ; 37038.55999999996
105 ; 4767830.620249655 ; 4.026933503653268E8 ; 4.9540048764203E8 ; 3.897380808972165E10 ; 37394.69999999996
106 ; 4768753.585275237 ; 4.0270771090725714E8 ; 5.001683182622796E8 ; 3.9376501440086975E10 ; 37750.83999999996
107 ; 4769185.366285424 ; 4.027220864184929E8 ; 5.0493707184755486E8 ; 3.977920915099423E10 ; 38106.97999999996
108 ; 4770794.607495318 ; 4.027364755132204E8 ; 5.097062572138403E8 ; 4.018193123741273E10 ; 38463.11999999996
109 ; 4766217.84344254 ; 4.02750876834085E8 ; 5.144770518213356E8 ; 4.058466771292595E10 ; 38819.25999999996
110 ; 4769978.297712657 ; 4.0276528905140805E8 ; 5.192432696647782E8 ; 4.098741858976003E10 ; 39175.39999999996
111 ; 4767559.163427295 ; 4.027797108624258E8 ; 5.2401324796249086E8 ; 4.139018387881144E10 ; 39531.53999999996
112 ; 4766348.148063763 ; 4.02794140990549E8 ; 5.2878080712591815E8 ; 4.179296358967387E10 ; 39887.67999999996
113 ; 4764756.3029663 ; 4.0280857818464196E8 ; 5.335471552739819E8 ; 4.219575773066441E10 ; 40243.819999999956
114 ; 4765003.530934652 ; 4.0282302121832275E8 ; 5.383119115769483E8 ; 4.259856630884905E10 ; 40599.959999999955
115 ; 4763676.746957016 ; 4.0283746888928205E8 ; 5.43076915107883E8 ; 4.3001389330067375E10 ; 40956.099999999955
116 ; 4764824.03573291 ; 4.028519200186223E8 ; 5.4784059185484E8 ; 4.340422679895666E10 ; 41312.239999999954
117 ; 4760636.361417445 ; 4.0286637345021474E8 ; 5.526054158905729E8 ; 4.380707871897528E10 ; 41668.379999999954
118 ; 4762802.412164216 ; 4.028808280500754E8 ; 5.573660522519903E8 ; 4.42099450924255E10 ; 42024.51999999995
119 ; 4761572.562620619 ; 4.028952827057594E8 ; 5.621288546641545E8 ; 4.461282592047557E10 ; 42380.65999999995
120 ; 4760439.942900097 ; 4.029097363257722E8 ; 5.668904272267752E8 ; 4.501572120318133E10 ; 42736.79999999995
121 ; 4761032.18540553 ; 4.029241878389988E8 ; 5.716508671696752E8 ; 4.54186309395071E10 ; 43092.93999999995
122 ; 4758385.677760241 ; 4.0293863619414914E8 ; 5.764118993550807E8 ; 4.58215551273461E10 ; 43449.07999999995
123 ; 4756873.18634352 ; 4.0295308035922074E8 ; 5.81170285032841E8 ; 4.622449376354025E10 ; 43805.21999999995
124 ; 4756306.09952301 ; 4.0296751932097626E8 ; 5.859271582191845E8 ; 4.6627446843899475E10 ; 44161.35999999995
125 ; 4752568.906014597 ; 4.029819520844374E8 ; 5.906834643187076E8 ; 4.703041436322045E10 ; 44517.49999999995
126 ; 4752036.014257195 ; 4.029963776723938E8 ; 5.954360332247221E8 ; 4.7433396315304886E10 ; 44873.63999999995
127 ; 4749503.076146324 ; 4.030107951249266E8 ; 6.001880692389793E8 ; 4.783639269297728E10 ; 45229.77999999995
128 ; 4747126.536818318 ; 4.030252034989465E8 ; 6.049375723151257E8 ; 4.82394034881022E10 ; 45585.91999999995
129 ; 4741242.085020992 ; 4.030396018677454E8 ; 6.09684698851944E8 ; 4.864242869160115E10 ; 45942.05999999995
130 ; 4742605.399994078 ; 4.030539893205621E8 ; 6.14425940936965E8 ; 4.9045468293468895E10 ; 46298.199999999946
131 ; 4739869.259348967 ; 4.030683649621612E8 ; 6.191685463369591E8 ; 4.944852228278946E10 ; 46654.339999999946
132 ; 4740165.819888145 ; 4.0308272791242415E8 ; 6.239084155963081E8 ; 4.985159064775162E10 ; 47010.479999999945
133 ; 4738065.573579124 ; 4.0309707730595344E8 ; 6.286485814161962E8 ; 5.025467337566404E10 ; 47366.619999999944
134 ; 4737446.748479961 ; 4.031114122916887E8 ; 6.333866469897753E8 ; 5.065777045296999E10 ; 47722.759999999944
135 ; 4738396.080217587 ; 4.031257320325341E8 ; 6.381240937382553E8 ; 5.106088186526168E10 ; 48078.89999999994
136 ; 4733039.554312833 ; 4.031400357049982E8 ; 6.428624898184729E8 ; 5.146400759729421E10 ; 48435.03999999994
137 ; 4733002.3838408915 ; 4.031543224988431E8 ; 6.475955293727857E8 ; 5.1867147632999214E10 ; 48791.17999999994
138 ; 4731405.079094638 ; 4.031685916167462E8 ; 6.523285317566266E8 ; 5.2270301955498055E10 ; 49147.31999999994
139 ; 4731317.896509392 ; 4.0318284227397096E8 ; 6.570599368357213E8 ; 5.26734705471148E10 ; 49503.45999999994
140 ; 4727970.832838413 ; 4.031970736980485E8 ; 6.617912547322307E8 ; 5.307665338938877E10 ; 49859.59999999994
141 ; 4725733.117517009 ; 4.0321128512846845E8 ; 6.665192255650691E8 ; 5.347985046308682E10 ; 50215.73999999994
142 ; 4723593.804075205 ; 4.032254758163798E8 ; 6.712449586825861E8 ; 5.3883061748215294E10 ; 50571.87999999994
143 ; 4721471.859217852 ; 4.032396450243004E8 ; 6.759685524866613E8 ; 5.428628722403168E10 ; 50928.01999999994
144 ; 4720005.341925685 ; 4.032537920258357E8 ; 6.806900243458792E8 ; 5.468952686905598E10 ; 51284.15999999994
145 ; 4718227.565574093 ; 4.032679161054059E8 ; 6.854100296878049E8 ; 5.509278066108181E10 ; 51640.29999999994
146 ; 4719056.878719142 ; 4.0328201655798185E8 ; 6.90128257253379E8 ; 5.549604857718722E10 ; 51996.43999999994
147 ; 4718284.273114118 ; 4.0329609268882823E8 ; 6.948473141320981E8 ; 5.58993305937452E10 ; 52352.579999999936
148 ; 4716884.271667004 ; 4.033101438132554E8 ; 6.995655984052122E8 ; 5.630262668643403E10 ; 52708.719999999936
149 ; 4719925.190975265 ; 4.0332416925637865E8 ; 7.042824826768792E8 ; 5.6705936830247284E10 ; 53064.859999999935
150 ; 4716643.524364731 ; 4.033381683528842E8 ; 7.090024078678545E8 ; 5.710926099950366E10 ; 53420.999999999935
151 ; 4718843.06532821 ; 4.033521404468032E8 ; 7.137190513922192E8 ; 5.7512599167856544E10 ; 53777.139999999934
152 ; 4715317.910861473 ; 4.033660848912921E8 ; 7.184378944575474E8 ; 5.7915951308303345E10 ; 54133.27999999993
153 ; 4717003.004807183 ; 4.033800010484196E8 ; 7.231532123684089E8 ; 5.831931739319463E10 ; 54489.41999999993
154 ; 4716801.023340637 ; 4.033938882889606E8 ; 7.278702153732162E8 ; 5.872269739424305E10 ; 54845.55999999993
155 ; 4717399.690569331 ; 4.0340774599219596E8 ; 7.325870163965567E8 ; 5.912609128253201E10 ; 55201.69999999993
156 ; 4717172.254078019 ; 4.0342157354571855E8 ; 7.37304416087126E8 ; 5.952949902852421E10 ; 55557.83999999993
157 ; 4716798.394754857 ; 4.034353703452449E8 ; 7.42021588341204E8 ; 5.993292060206992E10 ; 55913.97999999993
158 ; 4719022.497289604 ; 4.03449135794433E8 ; 7.467383867359589E8 ; 6.033635597241517E10 ; 56270.11999999993
159 ; 4718789.952384267 ; 4.034628693047051E8 ; 7.514574092332486E8 ; 6.07398051082096E10 ; 56626.25999999993
160 ; 4717719.140922878 ; 4.034765702950764E8 ; 7.561761991856328E8 ; 6.1143267977514305E10 ; 56982.39999999993
161 ; 4715944.096016681 ; 4.034902381919882E8 ; 7.608939183265557E8 ; 6.154674454780938E10 ; 57338.53999999993
162 ; 4716914.166021683 ; 4.0350387242914706E8 ; 7.656098624225724E8 ; 6.1950234786001366E10 ; 57694.67999999993
163 ; 4714978.314449037 ; 4.0351747244736767E8 ; 7.703267765885941E8 ; 6.235373865843051E10 ; 58050.81999999993
164 ; 4713095.439506501 ; 4.0353103769442105E8 ; 7.750417549030432E8 ; 6.275725613087788E10 ; 58406.95999999993
165 ; 4713032.040043248 ; 4.035445676248875E8 ; 7.797548503425497E8 ; 6.3160787168572296E10 ; 58763.099999999926
166 ; 4712697.427236621 ; 4.035580617000135E8 ; 7.844678823825929E8 ; 6.356433173619718E10 ; 59119.239999999925
167 ; 4711072.731069004 ; 4.0357151938757294E8 ; 7.891805798098296E8 ; 6.3967889797897194E10 ; 59475.379999999925
168 ; 4710354.298288288 ; 4.0358494016173255E8 ; 7.938916525408986E8 ; 6.437146131728477E10 ; 59831.519999999924
169 ; 4711039.546143101 ; 4.035983235029217E8 ; 7.986020068391869E8 ; 6.47750462574465E10 ; 60187.65999999992
170 ; 4713010.874176638 ; 4.036116688977052E8 ; 8.0331304638533E8 ; 6.5178644580949425E10 ; 60543.79999999992
171 ; 4707486.926930364 ; 4.03624975838661E8 ; 8.080260572595066E8 ; 6.558225624984713E10 ; 60899.93999999992
172 ; 4709920.290860692 ; 4.0363824382426035E8 ; 8.127335441864369E8 ; 6.598588122568579E10 ; 61256.07999999992
173 ; 4711465.530604653 ; 4.036514723587525E8 ; 8.174434644772975E8 ; 6.638951946951005E10 ; 61612.21999999992
174 ; 4711765.554916195 ; 4.0366466095205176E8 ; 8.221549300079021E8 ; 6.67931709418688E10 ; 61968.35999999992
175 ; 4711090.027527884 ; 4.036778091196294E8 ; 8.268666955628183E8 ; 6.719683560282085E10 ; 62324.49999999992
176 ; 4712777.212318404 ; 4.036909163824067E8 ; 8.315777855903462E8 ; 6.7600513411940475E10 ; 62680.63999999992
177 ; 4713866.470758401 ; 4.037039822666532E8 ; 8.362905628026646E8 ; 6.800420432832288E10 ; 63036.77999999992
