CSV File for the Network on Day 75
1 - Minute m 
2 - Power Consumed at minute m 
3 - Power Produced at minute m 
4 - Energy Consumed since the beginning of the day 
5 - Energy Produced since the beginning of the day 
6 - Energy Lost since the beginning of the day 
 
0 ; 4546319.139350437 ; 2.1099517660115153E8 ; 0.0 ; 0.0 ; 0.0
1 ; 4550663.166484422 ; 2.1130102057228917E8 ; 4546319.139350437 ; 2.1099517660115153E8 ; 356.14
2 ; 4554271.673354492 ; 2.1222443250414896E8 ; 9096982.30583486 ; 4.222961971734407E8 ; 712.28
3 ; 4559855.517814257 ; 2.1376541580874032E8 ; 1.3651253979189351E7 ; 6.345206296775897E8 ; 1068.42
4 ; 4564719.882829432 ; 2.1592397355055112E8 ; 1.8211109497003607E7 ; 8.4828604548633E8 ; 1424.56
5 ; 4569575.370543434 ; 2.1870010842731452E8 ; 2.277582937983304E7 ; 1.0642100190368812E9 ; 1780.6999999999998
6 ; 4574303.750443097 ; 2.2209382275270706E8 ; 2.7345404750376474E7 ; 1.2829101274641957E9 ; 2136.8399999999997
7 ; 4578357.2798502855 ; 2.2610511844123262E8 ; 3.191970850081957E7 ; 1.5050039502169027E9 ; 2492.9799999999996
8 ; 4581938.602528595 ; 2.307339969955184E8 ; 3.649806578066985E7 ; 1.7311090686581354E9 ; 2849.1199999999994
9 ; 4583115.517140355 ; 2.3598045949622095E8 ; 4.108000438319845E7 ; 1.9618430656536539E9 ; 3205.2599999999993
10 ; 4588024.127499257 ; 2.418445065946985E8 ; 4.56631199003388E7 ; 2.1978235251498747E9 ; 3561.399999999999
11 ; 4587971.9912314955 ; 2.4832613850856668E8 ; 5.025114402783806E7 ; 2.439668031744573E9 ; 3917.539999999999
12 ; 4593066.16550738 ; 2.554253550202098E8 ; 5.483911601906955E7 ; 2.68799417025314E9 ; 4273.679999999999
13 ; 4595374.206582745 ; 2.631421554782696E8 ; 5.943218218457693E7 ; 2.94341952527335E9 ; 4629.82
14 ; 4598685.784710968 ; 2.714765388020898E8 ; 6.4027556391159676E7 ; 3.2065616807516193E9 ; 4985.96
15 ; 4604282.593949836 ; 2.804285034890429E8 ; 6.862624217587064E7 ; 3.478038219553709E9 ; 5342.1
16 ; 4606042.54451178 ; 2.899980476246252E8 ; 7.323052476982048E7 ; 3.758466723042752E9 ; 5698.240000000001
17 ; 4610325.31975953 ; 3.001851688951601E8 ; 7.783656731433226E7 ; 4.048464770667377E9 ; 6054.380000000001
18 ; 4612664.279997379 ; 3.1098986460291445E8 ; 8.24468926340918E7 ; 4.348649939562537E9 ; 6410.520000000001
19 ; 4614400.321247113 ; 3.224121316834003E8 ; 8.705955691408917E7 ; 4.659639804165452E9 ; 6766.660000000002
20 ; 4617909.001365574 ; 3.344519667246083E8 ; 9.167395723533629E7 ; 4.982051935848852E9 ; 7122.800000000002
21 ; 4620281.225608956 ; 3.4710936598789823E8 ; 9.629186623670186E7 ; 5.316503902573461E9 ; 7478.940000000002
22 ; 4624782.936029851 ; 3.603843254302622E8 ; 1.0091214746231082E8 ; 5.663613268561358E9 ; 7835.080000000003
23 ; 4628458.919870642 ; 3.7427684072766566E8 ; 1.0553693039834067E8 ; 6.023997593991621E9 ; 8191.220000000003
24 ; 4632699.078577925 ; 3.887869072991761E8 ; 1.1016538931821132E8 ; 6.398274434719287E9 ; 8547.360000000002
25 ; 4635518.359671667 ; 4.0129060212795866E8 ; 1.1479808839678924E8 ; 6.787061342018463E9 ; 8903.500000000002
26 ; 4639571.082499023 ; 4.0129501585992146E8 ; 1.194336067564609E8 ; 7.188351944146421E9 ; 9259.640000000001
27 ; 4642900.409424118 ; 4.0129968187834287E8 ; 1.2407317783895993E8 ; 7.589646960006343E9 ; 9615.78
28 ; 4642417.2506169835 ; 4.013045948219639E8 ; 1.2871607824838404E8 ; 7.9909466418846855E9 ; 9971.92
29 ; 4646682.706427472 ; 4.0130974919553685E8 ; 1.3335849549900103E8 ; 8.39225123670665E9 ; 10328.06
30 ; 4651406.081116985 ; 4.0131513939320195E8 ; 1.380051782054285E8 ; 8.793560985902187E9 ; 10684.199999999999
31 ; 4653271.148257514 ; 4.0132075972101617E8 ; 1.426565842865455E8 ; 9.19487612529539E9 ; 11040.339999999998
32 ; 4655822.251081866 ; 4.0132660441849375E8 ; 1.47309855434803E8 ; 9.596196885016405E9 ; 11396.479999999998
33 ; 4656527.594047463 ; 4.013326676790454E8 ; 1.5196567768588486E8 ; 9.997523489434898E9 ; 11752.619999999997
34 ; 4658808.6352181705 ; 4.0133894366922617E8 ; 1.5662220527993232E8 ; 1.0398856157113943E10 ; 12108.759999999997
35 ; 4662645.1449996205 ; 4.013454265467282E8 ; 1.612810139151505E8 ; 1.0800195100783169E10 ; 12464.899999999996
36 ; 4665157.129319601 ; 4.0135211047707576E8 ; 1.6594365906015012E8 ; 1.1201540527329897E10 ; 12821.039999999995
37 ; 4666135.348551509 ; 4.013589896489999E8 ; 1.7060881618946972E8 ; 1.1602892637806973E10 ; 13177.179999999995
38 ; 4670724.714744985 ; 4.0136605828848976E8 ; 1.7527495153802124E8 ; 1.2004251627455973E10 ; 13533.319999999994
39 ; 4670757.944490072 ; 4.0137331067153215E8 ; 1.7994567625276622E8 ; 1.2405617685744463E10 ; 13889.459999999994
40 ; 4673138.04426791 ; 4.013807411355662E8 ; 1.846164341972563E8 ; 1.2806990996415995E10 ; 14245.599999999993
41 ; 4674372.058919667 ; 4.013883440896895E8 ; 1.8928957224152422E8 ; 1.3208371737551561E10 ; 14601.739999999993
42 ; 4675940.44629212 ; 4.0139611402366483E8 ; 1.939639443004439E8 ; 1.360976008164125E10 ; 14957.879999999992
43 ; 4678851.220428352 ; 4.014040455157809E8 ; 1.9863988474673602E8 ; 1.4011156195664915E10 ; 15314.019999999991
44 ; 4681243.89513608 ; 4.0141213323962784E8 ; 2.0331873596716437E8 ; 1.4412560241180696E10 ; 15670.15999999999
45 ; 4681069.673084148 ; 4.01420371969852E8 ; 2.0799997986230046E8 ; 1.4813972374420324E10 ; 16026.29999999999
46 ; 4682851.780890479 ; 4.0142875658695793E8 ; 2.126810495353846E8 ; 1.5215392746390177E10 ; 16382.43999999999
47 ; 4685644.767141645 ; 4.014372820812252E8 ; 2.1736390131627506E8 ; 1.5616821502977135E10 ; 16738.57999999999
48 ; 4689341.403802531 ; 4.014459435558083E8 ; 2.220495460834167E8 ; 1.601825878505836E10 ; 17094.71999999999
49 ; 4689218.590509722 ; 4.0145473622908866E8 ; 2.2673888748721924E8 ; 1.6419704728614168E10 ; 17450.85999999999
50 ; 4689657.176730272 ; 4.0146365543634444E8 ; 2.3142810607772896E8 ; 1.6821159464843256E10 ; 17806.99999999999
51 ; 4689272.353805275 ; 4.0147269663080204E8 ; 2.3611776325445923E8 ; 1.7222623120279602E10 ; 18163.13999999999
52 ; 4691830.698895025 ; 4.0148185538413155E8 ; 2.408070356082645E8 ; 1.7624095816910404E10 ; 18519.279999999988
53 ; 4694298.050320194 ; 4.014911273864441E8 ; 2.4549886630715954E8 ; 1.8025577672294537E10 ; 18875.419999999987
54 ; 4693132.219765737 ; 4.0150050844584686E8 ; 2.5019316435747975E8 ; 1.842706879968098E10 ; 19231.559999999987
55 ; 4694514.558188381 ; 4.015099944876076E8 ; 2.5488629657724547E8 ; 1.8828569308126827E10 ; 19587.699999999986
56 ; 4693972.115805303 ; 4.015195815529764E8 ; 2.5958081113543385E8 ; 1.9230079302614433E10 ; 19943.839999999986
57 ; 4694876.596999616 ; 4.0152926579771113E8 ; 2.6427478325123915E8 ; 1.9631598884167408E10 ; 20299.979999999985
58 ; 4696285.181446781 ; 4.0153904349034584E8 ; 2.6896965984823877E8 ; 2.003312814996512E10 ; 20656.119999999984
59 ; 4698703.09449666 ; 4.0154891101024187E8 ; 2.7366594502968556E8 ; 2.0434667193455463E10 ; 21012.259999999984
60 ; 4697931.637435748 ; 4.0155886484545577E8 ; 2.783646481241822E8 ; 2.0836216104465706E10 ; 21368.399999999983
61 ; 4699840.7367795585 ; 4.015689015904552E8 ; 2.8306257976161796E8 ; 2.123777496931116E10 ; 21724.539999999983
62 ; 4701257.005397799 ; 4.015790179437116E8 ; 2.877624204983975E8 ; 2.1639343870901615E10 ; 22080.679999999982
63 ; 4701727.101653622 ; 4.015892107051954E8 ; 2.924636775037953E8 ; 2.2040922888845325E10 ; 22436.81999999998
64 ; 4704168.358500995 ; 4.0159947677379704E8 ; 2.9716540460544896E8 ; 2.244251209955052E10 ; 22792.95999999998
65 ; 4703622.435326443 ; 4.016098131446928E8 ; 3.0186957296395E8 ; 2.2844111576324318E10 ; 23149.09999999998
66 ; 4703975.088571078 ; 4.016202169066762E8 ; 3.0657319539927644E8 ; 2.324572138946901E10 ; 23505.23999999998
67 ; 4705812.34885129 ; 4.0163068523946905E8 ; 3.112771704878475E8 ; 2.3647341606375687E10 ; 23861.37999999998
68 ; 4706965.986221644 ; 4.016412154110266E8 ; 3.159829828366988E8 ; 2.4048972291615154E10 ; 24217.51999999998
69 ; 4705941.730294576 ; 4.0165180477484965E8 ; 3.2068994882292044E8 ; 2.445061350702618E10 ; 24573.659999999978
70 ; 4706286.786107028 ; 4.0166245076731455E8 ; 3.25395890553215E8 ; 2.485226531180103E10 ; 24929.799999999977
71 ; 4707665.742918593 ; 4.016731509050293E8 ; 3.3010217733932203E8 ; 2.5253927762568344E10 ; 25285.939999999977
72 ; 4705806.729806828 ; 4.016839027822242E8 ; 3.3480984308224064E8 ; 2.5655600913473373E10 ; 25642.079999999976
73 ; 4706684.889234654 ; 4.016947040681845E8 ; 3.395156498120475E8 ; 2.6057284816255596E10 ; 25998.219999999976
74 ; 4708660.708615368 ; 4.017055525047289E8 ; 3.4422233470128214E8 ; 2.645897952032378E10 ; 26354.359999999975
75 ; 4706652.726312173 ; 4.0171644590374035E8 ; 3.489309954098975E8 ; 2.686068507282851E10 ; 26710.499999999975
76 ; 4708008.034829963 ; 4.0172738214475155E8 ; 3.5363764813620967E8 ; 2.726240151873225E10 ; 27066.639999999974
77 ; 4707815.878627258 ; 4.0173835917258906E8 ; 3.5834565617103964E8 ; 2.7664128900877003E10 ; 27422.779999999973
78 ; 4708346.333043502 ; 4.0174937499507797E8 ; 3.630534720496669E8 ; 2.806586726004959E10 ; 27778.919999999973
79 ; 4707368.639858714 ; 4.0176042768080854E8 ; 3.677618183827104E8 ; 2.846761663504467E10 ; 28135.059999999972
80 ; 4709054.824745524 ; 4.017715153569667E8 ; 3.724691870225691E8 ; 2.886937706272548E10 ; 28491.19999999997
81 ; 4708433.614598606 ; 4.017826362072283E8 ; 3.7717824184731466E8 ; 2.9271148578082447E10 ; 28847.33999999997
82 ; 4707890.4076045435 ; 4.017937884697186E8 ; 3.818866754619133E8 ; 2.9672931214289677E10 ; 29203.47999999997
83 ; 4709575.340688089 ; 4.018049704350356E8 ; 3.865945658695178E8 ; 3.0074725002759396E10 ; 29559.61999999997
84 ; 4710707.457418248 ; 4.018161804443378E8 ; 3.913041412102059E8 ; 3.047652997319443E10 ; 29915.75999999997
85 ; 4710964.123077235 ; 4.0182741688749564E8 ; 3.960148486676242E8 ; 3.0878346153638767E10 ; 30271.89999999997
86 ; 4708967.9057349535 ; 4.01838678201306E8 ; 4.007258127907014E8 ; 3.1280173570526264E10 ; 30628.039999999968
87 ; 4706892.657884234 ; 4.018499628677677E8 ; 4.0543478069643635E8 ; 3.168201224872757E10 ; 30984.179999999968
88 ; 4708967.511380684 ; 4.0186126941241914E8 ; 4.101416733543206E8 ; 3.2083862211595337E10 ; 31340.319999999967
89 ; 4707174.034424214 ; 4.01872596402734E8 ; 4.1485064086570126E8 ; 3.2485723481007755E10 ; 31696.459999999966
90 ; 4707317.40094311 ; 4.01883942446576E8 ; 4.1955781490012544E8 ; 3.288759607741049E10 ; 32052.599999999966
91 ; 4707883.214304904 ; 4.0189530619070995E8 ; 4.2426513230106854E8 ; 3.3289480019857063E10 ; 32408.739999999965
92 ; 4707165.317789582 ; 4.0190668631936836E8 ; 4.2897301551537347E8 ; 3.369137532604777E10 ; 32764.879999999965
93 ; 4708543.305001783 ; 4.0191808155287117E8 ; 4.33680180833163E8 ; 3.409328201236714E10 ; 33121.01999999997
94 ; 4705495.1044937745 ; 4.0192949064629817E8 ; 4.383887241381648E8 ; 3.449520009392001E10 ; 33477.15999999997
95 ; 4705139.172242325 ; 4.019409123882117E8 ; 4.430942192426586E8 ; 3.4897129584566315E10 ; 33833.29999999997
96 ; 4704188.082098595 ; 4.0195234559942806E8 ; 4.4779935841490096E8 ; 3.529907049695453E10 ; 34189.439999999966
97 ; 4705427.681234024 ; 4.0196378913183665E8 ; 4.5250354649699956E8 ; 3.5701022842553955E10 ; 34545.579999999965
98 ; 4703752.748357533 ; 4.019752418672645E8 ; 4.5720897417823356E8 ; 3.610298663168579E10 ; 34901.719999999965
99 ; 4702043.905480293 ; 4.0198670271638525E8 ; 4.619127269265911E8 ; 3.6504961873553055E10 ; 35257.859999999964
100 ; 4701923.428007981 ; 4.0199817061767054E8 ; 4.6661477083207136E8 ; 3.690694857626944E10 ; 35613.99999999996
101 ; 4699904.591483174 ; 4.020096445363827E8 ; 4.713166942600793E8 ; 3.730894674688711E10 ; 35970.13999999996
102 ; 4698297.241193715 ; 4.020211234636066E8 ; 4.760165988515625E8 ; 3.771095639142349E10 ; 36326.27999999996
103 ; 4698689.187064722 ; 4.020326064153204E8 ; 4.807148960927562E8 ; 3.81129775148871E10 ; 36682.41999999996
104 ; 4699454.33516576 ; 4.0204409243150187E8 ; 4.854135852798209E8 ; 3.851501012130242E10 ; 37038.55999999996
105 ; 4697745.905311701 ; 4.020555805752716E8 ; 4.9011303961498666E8 ; 3.8917054213733925E10 ; 37394.69999999996
106 ; 4696878.503997626 ; 4.020670699320683E8 ; 4.9481078552029836E8 ; 3.93191097943092E10 ; 37750.83999999996
107 ; 4696867.863077988 ; 4.020785596088583E8 ; 4.99507664024296E8 ; 3.9721176864241264E10 ; 38106.97999999996
108 ; 4696499.356570806 ; 4.020900487333756E8 ; 5.04204531887374E8 ; 4.012325542385012E10 ; 38463.11999999996
109 ; 4694651.845688184 ; 4.021015364533922E8 ; 5.0890103124394476E8 ; 4.0525345472583496E10 ; 38819.25999999996
110 ; 4694324.56196663 ; 4.021130219360175E8 ; 5.135956830896329E8 ; 4.092744700903689E10 ; 39175.39999999996
111 ; 4694730.502130602 ; 4.0212450436702526E8 ; 5.182900076515996E8 ; 4.132956003097291E10 ; 39531.53999999996
112 ; 4694499.565681194 ; 4.0213598295020735E8 ; 5.229847381537302E8 ; 4.1731684535339935E10 ; 39887.67999999996
113 ; 4691396.108965628 ; 4.021474569067533E8 ; 5.2767923771941143E8 ; 4.2133820518290146E10 ; 40243.819999999956
114 ; 4690223.159308871 ; 4.021589254746536E8 ; 5.3237063382837707E8 ; 4.25359679751969E10 ; 40599.959999999955
115 ; 4687611.670175393 ; 4.0217038790812796E8 ; 5.370608569876859E8 ; 4.2938126900671555E10 ; 40956.099999999955
116 ; 4687613.672526932 ; 4.021818434770745E8 ; 5.417484686578614E8 ; 4.334029728857968E10 ; 41312.239999999954
117 ; 4686719.475274168 ; 4.021932914665421E8 ; 5.464360823303883E8 ; 4.3742479132056755E10 ; 41668.379999999954
118 ; 4682360.463800271 ; 4.022047311762223E8 ; 5.511228018056625E8 ; 4.41446724235233E10 ; 42024.51999999995
119 ; 4683717.236164058 ; 4.0221616191996217E8 ; 5.558051622694628E8 ; 4.4546877154699524E10 ; 42380.65999999995
120 ; 4680711.901689831 ; 4.022275830252955E8 ; 5.604888795056269E8 ; 4.4949093316619484E10 ; 42736.79999999995
121 ; 4679911.646751428 ; 4.022389938329928E8 ; 5.651695914073168E8 ; 4.535132089964478E10 ; 43092.93999999995
122 ; 4677921.762025732 ; 4.022503936966288E8 ; 5.698495030540682E8 ; 4.5753559893477776E10 ; 43449.07999999995
123 ; 4677183.802117538 ; 4.022617819821663E8 ; 5.745274248160939E8 ; 4.615581028717441E10 ; 43805.21999999995
124 ; 4672745.142697042 ; 4.022731580675571E8 ; 5.792046086182115E8 ; 4.655807206915657E10 ; 44161.35999999995
125 ; 4672618.017869454 ; 4.022845213423574E8 ; 5.838773537609086E8 ; 4.696034522722413E10 ; 44517.49999999995
126 ; 4669685.740777393 ; 4.0229587120735884E8 ; 5.885499717787781E8 ; 4.736262974856648E10 ; 44873.63999999995
127 ; 4666867.738798002 ; 4.023072070742336E8 ; 5.932196575195554E8 ; 4.776492561977384E10 ; 45229.77999999995
128 ; 4664517.10418287 ; 4.0231852836519265E8 ; 5.978865252583535E8 ; 4.8167232826848076E10 ; 45585.91999999995
129 ; 4662756.543625888 ; 4.0232983451265764E8 ; 6.025510423625363E8 ; 4.856955135521327E10 ; 45942.05999999995
130 ; 4658620.075621493 ; 4.023411249589454E8 ; 6.072137989061621E8 ; 4.897188118972593E10 ; 46298.199999999946
131 ; 4655993.267638438 ; 4.023523991559639E8 ; 6.118724189817836E8 ; 4.9374222314684875E10 ; 46654.339999999946
132 ; 4653717.547363325 ; 4.0236365656492037E8 ; 6.165284122494221E8 ; 4.9776574713840836E10 ; 47010.479999999945
133 ; 4651409.031188078 ; 4.0237489665604025E8 ; 6.211821297967854E8 ; 5.0178938370405754E10 ; 47366.619999999944
134 ; 4652856.981284985 ; 4.023861189082965E8 ; 6.258335388279735E8 ; 5.05813132670618E10 ; 47722.759999999944
135 ; 4647625.814881218 ; 4.023973228091497E8 ; 6.304863958092585E8 ; 5.098369938597009E10 ; 48078.89999999994
136 ; 4647475.497125032 ; 4.024085078542973E8 ; 6.351340216241397E8 ; 5.138609670877924E10 ; 48435.03999999994
137 ; 4645697.826077565 ; 4.0241967354743254E8 ; 6.397814971212647E8 ; 5.178850521663354E10 ; 48791.17999999994
138 ; 4643716.215389257 ; 4.0243081940001273E8 ; 6.444271949473423E8 ; 5.219092489018097E10 ; 49147.31999999994
139 ; 4639417.558735531 ; 4.0244194493103546E8 ; 6.490709111627315E8 ; 5.259335570958098E10 ; 49503.45999999994
140 ; 4638191.55134142 ; 4.024530496668234E8 ; 6.53710328721467E8 ; 5.299579765451202E10 ; 49859.59999999994
141 ; 4634754.206367797 ; 4.0246413314081717E8 ; 6.583485202728084E8 ; 5.339825070417884E10 ; 50215.73999999994
142 ; 4630257.893173228 ; 4.024751948933759E8 ; 6.629832744791763E8 ; 5.380071483731966E10 ; 50571.87999999994
143 ; 4631212.319580053 ; 4.02486234471585E8 ; 6.676135323723495E8 ; 5.4203190032213036E10 ; 50928.01999999994
144 ; 4626647.040229665 ; 4.024972514290706E8 ; 6.722447446919296E8 ; 5.460567626668462E10 ; 51284.15999999994
145 ; 4625471.073955697 ; 4.025082453258216E8 ; 6.768713917321593E8 ; 5.500817351811369E10 ; 51640.29999999994
146 ; 4626027.586582736 ; 4.025192157280172E8 ; 6.814968628061149E8 ; 5.5410681763439514E10 ; 51996.43999999994
147 ; 4622272.306871983 ; 4.025301622078618E8 ; 6.861228903926977E8 ; 5.5813200979167534E10 ; 52352.579999999936
148 ; 4621712.584535127 ; 4.0254108434342456E8 ; 6.907451626995697E8 ; 5.62157311413754E10 ; 52708.719999999936
149 ; 4621954.977328201 ; 4.025519817184861E8 ; 6.953668752841048E8 ; 5.661827222571882E10 ; 53064.859999999935
150 ; 4622299.136238777 ; 4.025628539223894E8 ; 6.99988830261433E8 ; 5.70208242074373E10 ; 53420.999999999935
151 ; 4621343.84642714 ; 4.025737005498972E8 ; 7.046111293976718E8 ; 5.742338706135969E10 ; 53777.139999999934
152 ; 4616745.370914869 ; 4.0258452120105386E8 ; 7.092324732440989E8 ; 5.7825960761909584E10 ; 54133.27999999993
153 ; 4618570.245067052 ; 4.025953154810519E8 ; 7.138492186150137E8 ; 5.822854528311064E10 ; 54489.41999999993
154 ; 4617111.30342905 ; 4.0260608300010407E8 ; 7.184677888600807E8 ; 5.863114059859169E10 ; 54845.55999999993
155 ; 4618555.522703623 ; 4.026168233733188E8 ; 7.230849001635097E8 ; 5.90337466815918E10 ; 55201.69999999993
156 ; 4615979.51705489 ; 4.0262753622058153E8 ; 7.277034556862134E8 ; 5.943636350496512E10 ; 55557.83999999993
157 ; 4615499.787013283 ; 4.026382211664387E8 ; 7.323194352032683E8 ; 5.98389910411857E10 ; 55913.97999999993
158 ; 4614479.413648821 ; 4.026488778399869E8 ; 7.369349349902816E8 ; 6.0241629262352135E10 ; 56270.11999999993
159 ; 4613452.087988592 ; 4.0265950587476504E8 ; 7.415494144039304E8 ; 6.064427814019212E10 ; 56626.25999999993
160 ; 4612732.960782556 ; 4.026701049086511E8 ; 7.46162866491919E8 ; 6.104693764606689E10 ; 56982.39999999993
161 ; 4610741.379283448 ; 4.026806745837618E8 ; 7.507755994527016E8 ; 6.144960775097554E10 ; 57338.53999999993
162 ; 4611957.033918591 ; 4.0269121454635596E8 ; 7.55386340831985E8 ; 6.18522884255593E10 ; 57694.67999999993
163 ; 4609019.623822571 ; 4.027017244467412E8 ; 7.599982978659036E8 ; 6.225497964010566E10 ; 58050.81999999993
164 ; 4606834.923148876 ; 4.0271220393918395E8 ; 7.646073174897262E8 ; 6.26576813645524E10 ; 58406.95999999993
165 ; 4606370.601598564 ; 4.027226526818223E8 ; 7.69214152412875E8 ; 6.3060393568491585E10 ; 58763.099999999926
166 ; 4605134.214529533 ; 4.0273307033658206E8 ; 7.738205230144737E8 ; 6.346311622117341E10 ; 59119.239999999925
167 ; 4604372.644121446 ; 4.027434565690955E8 ; 7.784256572290032E8 ; 6.386584929150999E10 ; 59475.379999999925
168 ; 4603285.528221315 ; 4.027538110486227E8 ; 7.830300298731246E8 ; 6.426859274807908E10 ; 59831.519999999924
169 ; 4600807.922681291 ; 4.027641334479764E8 ; 7.87633315401346E8 ; 6.46713465591277E10 ; 60187.65999999992
170 ; 4600672.323046233 ; 4.027744234434478E8 ; 7.922341233240273E8 ; 6.5074110692575676E10 ; 60543.79999999992
171 ; 4598893.730135042 ; 4.027846807147367E8 ; 7.968347956470735E8 ; 6.547688511601913E10 ; 60899.93999999992
172 ; 4597771.009283627 ; 4.027949049448824E8 ; 8.014336893772086E8 ; 6.5879669796733864E10 ; 61256.07999999992
173 ; 4599756.47995452 ; 4.02805095820198E8 ; 8.060314603864923E8 ; 6.628246470167875E10 ; 61612.21999999992
174 ; 4598685.216268715 ; 4.0281525303020644E8 ; 8.106312168664467E8 ; 6.668526979749895E10 ; 61968.35999999992
175 ; 4596805.972561634 ; 4.028253762675784E8 ; 8.152299020827154E8 ; 6.708808505052915E10 ; 62324.49999999992
176 ; 4599041.380973073 ; 4.02835465228073E8 ; 8.19826708055277E8 ; 6.749091042679673E10 ; 62680.63999999992
177 ; 4599164.442009205 ; 4.028455196104796E8 ; 8.244257494362501E8 ; 6.78937458920248E10 ; 63036.77999999992
