CSV File for the Network on Day 220
1 - Minute m 
2 - Power Consumed at minute m 
3 - Power Produced at minute m 
4 - Energy Consumed since the beginning of the day 
5 - Energy Produced since the beginning of the day 
6 - Energy Lost since the beginning of the day 
 
0 ; 489614.96823968 ; 2.1055003040237674E8 ; 0.0 ; 0.0 ; 0.0
1 ; 496232.16526504385 ; 2.108531694340143E8 ; 489614.96823968 ; 2.1055003040237674E8 ; 356.14
2 ; 498225.42494299513 ; 2.117740523368331E8 ; 985847.1335047239 ; 4.2140319983639103E8 ; 712.28
3 ; 503101.678146348 ; 2.1331271223808923E8 ; 1484072.558447719 ; 6.331772521732241E8 ; 1068.42
4 ; 507199.2983819193 ; 2.1546918176299962E8 ; 1987174.236594067 ; 8.464899644113133E8 ; 1424.56
5 ; 513240.23368486436 ; 2.182434921692548E8 ; 2494373.534975986 ; 1.061959146174313E9 ; 1780.6999999999998
6 ; 519454.9699677131 ; 2.216356723753418E8 ; 3007613.7686608504 ; 1.2802026383435678E9 ; 2136.8399999999997
7 ; 522431.1224168994 ; 2.2564574793307182E8 ; 3527068.7386285635 ; 1.5018383107189097E9 ; 2492.9799999999996
8 ; 528228.2167791211 ; 2.3027374001390544E8 ; 4049499.861045463 ; 1.7274840586519816E9 ; 2849.1199999999994
9 ; 529683.0852760685 ; 2.3551966449203518E8 ; 4577728.077824584 ; 1.957757798665887E9 ; 3205.2599999999993
10 ; 533602.7259403138 ; 2.4138353121024755E8 ; 5107411.163100652 ; 2.1932774631579223E9 ; 3561.399999999999
11 ; 538183.5732082305 ; 2.478653435043809E8 ; 5641013.8890409665 ; 2.43466099436817E9 ; 3917.539999999999
12 ; 541470.8578113458 ; 2.5496509803859684E8 ; 6179197.462249197 ; 2.6825263378725505E9 ; 4273.679999999999
13 ; 546678.1730581338 ; 2.6268278497010884E8 ; 6720668.320060543 ; 2.937491435911147E9 ; 4629.82
14 ; 549299.2957171185 ; 2.710183884247246E8 ; 7267346.493118676 ; 3.200174220881256E9 ; 4985.96
15 ; 554825.8290275703 ; 2.799718872309832E8 ; 7816645.788835795 ; 3.4711926093059807E9 ; 5342.1
16 ; 558821.0175827545 ; 2.8954325583707374E8 ; 8371471.6178633645 ; 3.751164496536964E9 ; 5698.240000000001
17 ; 561814.0715454611 ; 2.99732465324509E8 ; 8930292.635446118 ; 4.0407077523740377E9 ; 6054.380000000001
18 ; 564407.7490762256 ; 3.1053948443559855E8 ; 9492106.70699158 ; 4.340440217698546E9 ; 6410.520000000001
19 ; 570241.3130863643 ; 3.219642805451254E8 ; 1.0056514456067804E7 ; 4.650979702134145E9 ; 6766.660000000002
20 ; 572024.8311476222 ; 3.340068205258335E8 ; 1.0626755769154169E7 ; 4.97294398267927E9 ; 7122.800000000002
21 ; 576866.1572089766 ; 3.466670714778995E8 ; 1.1198780600301791E7 ; 5.306950803205103E9 ; 7478.940000000002
22 ; 582294.1093049562 ; 3.59945001311069E8 ; 1.1775646757510768E7 ; 5.653617874683002E9 ; 7835.080000000003
23 ; 584850.3180837198 ; 3.7384057918260074E8 ; 1.2357940866815723E7 ; 6.013562875994072E9 ; 8191.220000000003
24 ; 588698.0481660134 ; 3.8835377580396384E8 ; 1.2942791184899444E7 ; 6.387403455176673E9 ; 8547.360000000002
25 ; 593314.323437346 ; 4.0086064543108726E8 ; 1.3531489233065458E7 ; 6.775757230980637E9 ; 8903.500000000002
26 ; 594942.8151534771 ; 4.008682580396818E8 ; 1.4124803556502804E7 ; 7.176617876411724E9 ; 9259.640000000001
27 ; 601433.327496227 ; 4.008761284042972E8 ; 1.4719746371656282E7 ; 7.577486134451406E9 ; 9615.78
28 ; 603926.8344269826 ; 4.008842345670297E8 ; 1.5321179699152509E7 ; 7.978362262855702E9 ; 9971.92
29 ; 609241.857669376 ; 4.008925563606601E8 ; 1.5925106533579491E7 ; 8.379246497422732E9 ; 10328.06
30 ; 610841.2096404477 ; 4.0090107531953263E8 ; 1.6534348391248867E7 ; 8.780139053783392E9 ; 10684.199999999999
31 ; 616525.3240082917 ; 4.0090977457470775E8 ; 1.7145189600889314E7 ; 9.181040129102924E9 ; 11040.339999999998
32 ; 619369.072436698 ; 4.009186387410271E8 ; 1.7761714924897607E7 ; 9.581949903677631E9 ; 11396.479999999998
33 ; 622723.8037205492 ; 4.009276538017087E8 ; 1.8381083997334305E7 ; 9.98286854241866E9 ; 11752.619999999997
34 ; 625243.7537994673 ; 4.0093680699444765E8 ; 1.9003807801054854E7 ; 1.0383796196220367E10 ; 12108.759999999997
35 ; 628106.9578880129 ; 4.009460867017131E8 ; 1.9629051554854322E7 ; 1.0784733003214815E10 ; 12464.899999999996
36 ; 632308.1496110534 ; 4.009554823469521E8 ; 2.0257158512742337E7 ; 1.1185679089916529E10 ; 12821.039999999995
37 ; 634990.6610761093 ; 4.0096498429768E8 ; 2.088946666235339E7 ; 1.1586634572263481E10 ; 13177.179999999995
38 ; 637541.8347036674 ; 4.009745837759136E8 ; 2.15244573234295E7 ; 1.1987599556561161E10 ; 13533.319999999994
39 ; 641865.6436663626 ; 4.0098427277603066E8 ; 2.2161999158133168E7 ; 1.2388574140337074E10 ; 13889.459999999994
40 ; 644188.3340997746 ; 4.0099404398989046E8 ; 2.2803864801799532E7 ; 1.2789558413113106E10 ; 14245.599999999993
41 ; 648909.6539024609 ; 4.010038907388865E8 ; 2.3448053135899305E7 ; 1.3190552457102997E10 ; 14601.739999999993
42 ; 649603.1053350966 ; 4.010138069125079E8 ; 2.4096962789801765E7 ; 1.3591556347841883E10 ; 14957.879999999992
43 ; 652418.9757501578 ; 4.010237869129324E8 ; 2.4746565895136863E7 ; 1.399257015475439E10 ; 15314.019999999991
44 ; 655897.9435188775 ; 4.010338256051576E8 ; 2.5398984870887022E7 ; 1.4393593941667324E10 ; 15670.15999999999
45 ; 658606.9752056972 ; 4.010439182721801E8 ; 2.60548828144059E7 ; 1.4794627767272482E10 ; 16026.29999999999
46 ; 661970.9648744566 ; 4.010540605747484E8 ; 2.6713489789611597E7 ; 1.5195671685544662E10 ; 16382.43999999999
47 ; 665011.2143550355 ; 4.01064248515245E8 ; 2.7375460754486054E7 ; 1.5596725746119411E10 ; 16738.57999999999
48 ; 667925.2505634568 ; 4.0107447840528077E8 ; 2.804047196884109E7 ; 1.5997789994634657E10 ; 17094.71999999999
49 ; 668574.063910673 ; 4.0108474683662105E8 ; 2.870839721940455E7 ; 1.6398864473039938E10 ; 17450.85999999999
50 ; 672189.7067253486 ; 4.0109505065509516E8 ; 2.9376971283315223E7 ; 1.6799949219876558E10 ; 17806.99999999999
51 ; 674399.1377574431 ; 4.0110538693717396E8 ; 3.004916099004057E7 ; 1.7201044270531654E10 ; 18163.13999999999
52 ; 677018.0520068806 ; 4.011157529689318E8 ; 3.0723560127798013E7 ; 1.760214965746883E10 ; 18519.279999999988
53 ; 678351.6142412223 ; 4.011261462271377E8 ; 3.1400578179804895E7 ; 1.8003265410437763E10 ; 18875.419999999987
54 ; 679352.1373806413 ; 4.011365643622475E8 ; 3.207892979404612E7 ; 1.84043915566649E10 ; 19231.559999999987
55 ; 681990.7060243429 ; 4.011470051830938E8 ; 3.275828193142676E7 ; 1.880552812102715E10 ; 19587.699999999986
56 ; 683026.6537802761 ; 4.011574666430907E8 ; 3.34402726374511E7 ; 1.9206675126210243E10 ; 19943.839999999986
57 ; 686064.5139498363 ; 4.0116794682779384E8 ; 3.412329929123138E7 ; 1.9607832592853333E10 ; 20299.979999999985
58 ; 688132.6778939567 ; 4.0117844394366896E8 ; 3.480936380518121E7 ; 2.0009000539681126E10 ; 20656.119999999984
59 ; 690622.5798897212 ; 4.0118895630794346E8 ; 3.549749648307517E7 ; 2.0410178983624794E10 ; 21012.259999999984
60 ; 693468.9789158977 ; 4.0119948233942604E8 ; 3.6188119062964894E7 ; 2.081136793993274E10 ; 21368.399999999983
61 ; 695710.4505211216 ; 4.0121002055019325E8 ; 3.6881588041880794E7 ; 2.1212567422272163E10 ; 21724.539999999983
62 ; 699265.4431321245 ; 4.0122056953805315E8 ; 3.757729849240191E7 ; 2.1613777442822357E10 ; 22080.679999999982
63 ; 702104.8558142923 ; 4.012311279797065E8 ; 3.827656393553404E7 ; 2.201499801236041E10 ; 22436.81999999998
64 ; 704834.598688372 ; 4.0124169462453365E8 ; 3.897866879134833E7 ; 2.2416229140340115E10 ; 22792.95999999998
65 ; 703790.4770169778 ; 4.012522682889435E8 ; 3.96835033900367E7 ; 2.281747083496465E10 ; 23149.09999999998
66 ; 708007.9836408184 ; 4.0126284785122967E8 ; 4.038729386705368E7 ; 2.3218723103253593E10 ; 23505.23999999998
67 ; 709724.3616486404 ; 4.012734322468811E8 ; 4.10953018506945E7 ; 2.3619985951104824E10 ; 23861.37999999998
68 ; 711768.1056541979 ; 4.012840204643048E8 ; 4.180502621234314E7 ; 2.4021259383351704E10 ; 24217.51999999998
69 ; 713265.6143221006 ; 4.012946115409179E8 ; 4.251679431799734E7 ; 2.442254340381601E10 ; 24573.659999999978
70 ; 716189.5563645785 ; 4.013052045595755E8 ; 4.323005993231944E7 ; 2.4823838015356926E10 ; 24929.799999999977
71 ; 716450.2676953034 ; 4.013157986453011E8 ; 4.394624948868402E7 ; 2.52251432199165E10 ; 25285.939999999977
72 ; 719484.2508827634 ; 4.0132639296229076E8 ; 4.466269975637932E7 ; 2.5626459018561802E10 ; 25642.079999999976
73 ; 720024.5492326537 ; 4.013369867111658E8 ; 4.538218400726208E7 ; 2.6027785411524094E10 ; 25998.219999999976
74 ; 723131.39640652 ; 4.013475791264509E8 ; 4.6102208556494735E7 ; 2.642912239823526E10 ; 26354.359999999975
75 ; 724442.8958557113 ; 4.013581694742562E8 ; 4.682533995290125E7 ; 2.683046997736171E10 ; 26710.499999999975
76 ; 725995.7261972649 ; 4.0136875705014557E8 ; 4.754978284875696E7 ; 2.7231828146835964E10 ; 27066.639999999974
77 ; 726125.1548590574 ; 4.01379341177174E8 ; 4.827577857495423E7 ; 2.763319690388611E10 ; 27422.779999999973
78 ; 728598.5534232326 ; 4.013899212040788E8 ; 4.9001903729813285E7 ; 2.8034576245063282E10 ; 27778.919999999973
79 ; 728232.779152638 ; 4.0140049650361145E8 ; 4.973050228323652E7 ; 2.843596616626736E10 ; 28135.059999999972
80 ; 731806.7590801548 ; 4.0141106647099715E8 ; 5.045873506238916E7 ; 2.8837366662770973E10 ; 28491.19999999997
81 ; 734500.8194914948 ; 4.014216305225116E8 ; 5.1190541821469314E7 ; 2.923877772924197E10 ; 28847.33999999997
82 ; 737360.4360178346 ; 4.014321880941647E8 ; 5.192504264096081E7 ; 2.964019935976448E10 ; 29203.47999999997
83 ; 736881.9537157783 ; 4.014427386404823E8 ; 5.2662403076978646E7 ; 3.0041631547858646E10 ; 29559.61999999997
84 ; 740002.528280113 ; 4.0145328163337743E8 ; 5.3399285030694425E7 ; 3.044307428649913E10 ; 29915.75999999997
85 ; 740226.8522763706 ; 4.014638165611034E8 ; 5.413928755897454E7 ; 3.0844527568132507E10 ; 30271.89999999997
86 ; 742593.3260504846 ; 4.0147434292728317E8 ; 5.487951441125091E7 ; 3.124599138469361E10 ; 30628.039999999968
87 ; 745351.4727375648 ; 4.014848602500071E8 ; 5.5622107737301394E7 ; 3.1647465727620895E10 ; 30984.179999999968
88 ; 745435.9781865998 ; 4.014953680609951E8 ; 5.636745921003896E7 ; 3.2048950587870903E10 ; 31340.319999999967
89 ; 746541.902435907 ; 4.0150586590481675E8 ; 5.711289518822556E7 ; 3.24504459559319E10 ; 31696.459999999966
90 ; 748164.7834902911 ; 4.015163533381661E8 ; 5.7859437090661466E7 ; 3.2851951821836716E10 ; 32052.599999999966
91 ; 750564.3579100586 ; 4.015268299291853E8 ; 5.860760187415176E7 ; 3.325346817517488E10 ; 32408.739999999965
92 ; 752858.1837350135 ; 4.0153729525683475E8 ; 5.935816623206182E7 ; 3.3654995005104065E10 ; 32764.879999999965
93 ; 752149.6129117226 ; 4.0154774891030574E8 ; 6.011102441579683E7 ; 3.40565323003609E10 ; 33121.01999999997
94 ; 751951.9744545532 ; 4.015581904884714E8 ; 6.0863174028708555E7 ; 3.445808004927121E10 ; 33477.15999999997
95 ; 755189.9527037451 ; 4.015686195993743E8 ; 6.161512600316311E7 ; 3.485963823975968E10 ; 33833.29999999997
96 ; 755281.9324952263 ; 4.0157903585974807E8 ; 6.237031595586685E7 ; 3.5261206859359055E10 ; 34189.439999999966
97 ; 755552.971041139 ; 4.0158943889456874E8 ; 6.312559788836208E7 ; 3.56627858952188E10 ; 34545.579999999965
98 ; 757414.4281918921 ; 4.0159982833663595E8 ; 6.3881150859403215E7 ; 3.606437533411337E10 ; 34901.719999999965
99 ; 759853.0365431454 ; 4.016102038261801E8 ; 6.463856528759511E7 ; 3.646597516245001E10 ; 35257.859999999964
100 ; 758355.8741036702 ; 4.016205650104946E8 ; 6.5398418324138254E7 ; 3.686758536627619E10 ; 35613.99999999996
101 ; 763075.6226174382 ; 4.016309115435909E8 ; 6.615677419824193E7 ; 3.726920593128669E10 ; 35970.13999999996
102 ; 763387.6892779681 ; 4.016412430858747E8 ; 6.6919849820859365E7 ; 3.7670836842830284E10 ; 36326.27999999996
103 ; 765130.8078382547 ; 4.016515593038423E8 ; 6.768323751013733E7 ; 3.807247808591616E10 ; 36682.41999999996
104 ; 765282.2317237565 ; 4.016618598697955E8 ; 6.84483683179756E7 ; 3.847412964522E10 ; 37038.55999999996
105 ; 767825.3653027713 ; 4.0167214446157306E8 ; 6.921365054969935E7 ; 3.88757915050898E10 ; 37394.69999999996
106 ; 769357.3744361843 ; 4.016824127622988E8 ; 6.998147591500212E7 ; 3.927746364955137E10 ; 37750.83999999996
107 ; 769485.2611074956 ; 4.016926644601447E8 ; 7.07508332894383E7 ; 3.967914606231367E10 ; 38106.97999999996
108 ; 770168.2805282661 ; 4.01702899248107E8 ; 7.15203185505458E7 ; 4.008083872677381E10 ; 38463.11999999996
109 ; 771438.2062131393 ; 4.0171311682379675E8 ; 7.229048683107406E7 ; 4.048254162602192E10 ; 38819.25999999996
110 ; 772283.3757912103 ; 4.017233168892413E8 ; 7.30619250372872E7 ; 4.088425474284572E10 ; 39175.39999999996
111 ; 773431.6033644057 ; 4.017334991506976E8 ; 7.383420841307841E7 ; 4.128597805973496E10 ; 39531.53999999996
112 ; 775928.8533761132 ; 4.0174366331847656E8 ; 7.460764001644282E7 ; 4.168771155888566E10 ; 39887.67999999996
113 ; 776755.5711491834 ; 4.017538091067764E8 ; 7.538356886981894E7 ; 4.208945522220413E10 ; 40243.819999999956
114 ; 776408.1335822073 ; 4.0176393623352635E8 ; 7.616032444096813E7 ; 4.2491209031310905E10 ; 40599.959999999955
115 ; 777004.3846812239 ; 4.0177404442023814E8 ; 7.693673257455033E7 ; 4.289297296754443E10 ; 40956.099999999955
116 ; 777155.9874614414 ; 4.0178413339186645E8 ; 7.771373695923156E7 ; 4.329474701196467E10 ; 41312.239999999954
117 ; 779281.4490680018 ; 4.017942028766767E8 ; 7.8490892946693E7 ; 4.369653114535654E10 ; 41668.379999999954
118 ; 779792.6317904104 ; 4.0180425260611975E8 ; 7.9270174395761E7 ; 4.4098325348233215E10 ; 42024.51999999995
119 ; 778911.0307449135 ; 4.018142823147141E8 ; 8.004996702755141E7 ; 4.450012960083933E10 ; 42380.65999999995
120 ; 781301.4546041226 ; 4.018242917399335E8 ; 8.082887805829632E7 ; 4.4901943883154045E10 ; 42736.79999999995
121 ; 780886.4955914161 ; 4.0183428062210166E8 ; 8.161017951290044E7 ; 4.530376817489398E10 ; 43092.93999999995
122 ; 782728.721364498 ; 4.0184424870429134E8 ; 8.239106600849186E7 ; 4.570560245551608E10 ; 43449.07999999995
123 ; 782789.6419181727 ; 4.018541957322298E8 ; 8.317379472985636E7 ; 4.6107446704220375E10 ; 43805.21999999995
124 ; 781953.1989515361 ; 4.0186412145420855E8 ; 8.395658437177452E7 ; 4.650930089995261E10 ; 44161.35999999995
125 ; 781172.8565165593 ; 4.01874025620998E8 ; 8.473853757072607E7 ; 4.6911165021406815E10 ; 44517.49999999995
126 ; 782044.9722365596 ; 4.0188390798576665E8 ; 8.551971042724262E7 ; 4.731303904702781E10 ; 44873.63999999995
127 ; 782585.9579578502 ; 4.0189376830400425E8 ; 8.630175539947918E7 ; 4.771492295501357E10 ; 45229.77999999995
128 ; 780898.7235903603 ; 4.01903606333449E8 ; 8.708434135743703E7 ; 4.811681672331757E10 ; 45585.91999999995
129 ; 780802.1507304768 ; 4.0191342183401823E8 ; 8.786524008102739E7 ; 4.8518720329651024E10 ; 45942.05999999995
130 ; 780295.9126952529 ; 4.019232145677432E8 ; 8.864604223175786E7 ; 4.892063375148504E10 ; 46298.199999999946
131 ; 780619.4369145862 ; 4.019329842987062E8 ; 8.942633814445312E7 ; 4.932255696605278E10 ; 46654.339999999946
132 ; 779575.9125138259 ; 4.0194273079298174E8 ; 9.020695758136772E7 ; 4.972448995035149E10 ; 47010.479999999945
133 ; 780448.2148293905 ; 4.019524538185801E8 ; 9.098653349388154E7 ; 5.012643268114447E10 ; 47366.619999999944
134 ; 778991.8995176071 ; 4.0196215314539397E8 ; 9.176698170871092E7 ; 5.052838513496305E10 ; 47722.759999999944
135 ; 779910.5063200743 ; 4.019718285451474E8 ; 9.254597360822853E7 ; 5.0930347288108444E10 ; 48078.89999999994
136 ; 781277.5821047629 ; 4.0198147979134774E8 ; 9.332588411454861E7 ; 5.1332319116653595E10 ; 48435.03999999994
137 ; 781773.63908543 ; 4.0199110665923935E8 ; 9.410716169665337E7 ; 5.173430059644495E10 ; 48791.17999999994
138 ; 785235.7103924761 ; 4.0200070892576015E8 ; 9.48889353357388E7 ; 5.213629170310419E10 ; 49147.31999999994
139 ; 782178.1550281242 ; 4.020102863694996E8 ; 9.567417104613127E7 ; 5.2538292412029945E10 ; 49503.45999999994
140 ; 781452.8589575379 ; 4.020198387706597E8 ; 9.645634920115939E7 ; 5.2940302698399445E10 ; 49859.59999999994
141 ; 781192.1773382209 ; 4.0202936591101646E8 ; 9.723780206011693E7 ; 5.3342322537170105E10 ; 50215.73999999994
142 ; 782597.8775844319 ; 4.0203886757388484E8 ; 9.801899423745516E7 ; 5.374435190308112E10 ; 50571.87999999994
143 ; 781496.4773823802 ; 4.020483435440839E8 ; 9.880159211503959E7 ; 5.414639077065501E10 ; 50928.01999999994
144 ; 781694.3282920222 ; 4.020577936079047E8 ; 9.958308859242196E7 ; 5.454843911419909E10 ; 51284.15999999994
145 ; 784151.5941795311 ; 4.020672175530789E8 ; 1.0036478292071399E8 ; 5.495049690780699E10 ; 51640.29999999994
146 ; 783859.4590768316 ; 4.0207661516874945E8 ; 1.0114893451489352E8 ; 5.535256412536007E10 ; 51996.43999999994
147 ; 787511.0650815899 ; 4.020859862454426E8 ; 1.0193279397397035E8 ; 5.575464074052882E10 ; 52352.579999999936
148 ; 787682.4745736924 ; 4.020953305750407E8 ; 1.0272030503905195E8 ; 5.615672672677426E10 ; 52708.719999999936
149 ; 791344.8894752942 ; 4.021046479507568E8 ; 1.0350798751362564E8 ; 5.6558822057349304E10 ; 53064.859999999935
150 ; 792566.5121063682 ; 4.021139381671102E8 ; 1.0429933240310094E8 ; 5.6960926705300064E10 ; 53420.999999999935
151 ; 793141.6918393432 ; 4.0212320101990354E8 ; 1.0509189891520731E8 ; 5.736304064346717E10 ; 53777.139999999934
152 ; 794352.7270359879 ; 4.021324363062004E8 ; 1.0588504060704665E8 ; 5.7765163844487076E10 ; 54133.27999999993
153 ; 796773.3180617021 ; 4.021416438243041E8 ; 1.0667939333408263E8 ; 5.8167296280793274E10 ; 54489.41999999993
154 ; 800073.685444981 ; 4.0215082337373775E8 ; 1.0747616665214434E8 ; 5.856943792461758E10 ; 54845.55999999993
155 ; 800644.9257478395 ; 4.021599747552252E8 ; 1.0827624033758932E8 ; 5.897158874799132E10 ; 55201.69999999993
156 ; 803831.2346250506 ; 4.0216909777067244E8 ; 1.0907688526333717E8 ; 5.9373748722746544E10 ; 55557.83999999993
157 ; 804449.1560568638 ; 4.0217819222315043E8 ; 1.0988071649796222E8 ; 5.977591782051722E10 ; 55913.97999999993
158 ; 805816.7523785484 ; 4.021872579168782E8 ; 1.1068516565401909E8 ; 6.017809601274037E10 ; 56270.11999999993
159 ; 809596.0294989856 ; 4.0219629465720725E8 ; 1.1149098240639764E8 ; 6.058028327065725E10 ; 56626.25999999993
160 ; 812279.5550360535 ; 4.022053022506065E8 ; 1.1230057843589662E8 ; 6.098247956531445E10 ; 56982.39999999993
161 ; 814045.2909336134 ; 4.022142805046474E8 ; 1.1311285799093267E8 ; 6.1384684867565056E10 ; 57338.53999999993
162 ; 814335.2915765615 ; 4.0222322922799075E8 ; 1.1392690328186628E8 ; 6.17868991480697E10 ; 57694.67999999993
163 ; 815190.0264128692 ; 4.022321482303735E8 ; 1.1474123857344285E8 ; 6.218912237729769E10 ; 58050.81999999993
164 ; 817689.6260166537 ; 4.0224103732259583E8 ; 1.1555642859985572E8 ; 6.259135452552807E10 ; 58406.95999999993
165 ; 818613.7828948896 ; 4.0224989631650984E8 ; 1.1637411822587237E8 ; 6.299359556285066E10 ; 58763.099999999926
166 ; 821522.9956128735 ; 4.022587250250078E8 ; 1.1719273200876726E8 ; 6.3395845459167175E10 ; 59119.239999999925
167 ; 821408.5325011202 ; 4.0226752326201165E8 ; 1.1801425500438014E8 ; 6.3798104184192184E10 ; 59475.379999999925
168 ; 823163.2093625868 ; 4.022762908424624E8 ; 1.1883566353688125E8 ; 6.420037170745419E10 ; 59831.519999999924
169 ; 824945.2951777016 ; 4.0228502758231074E8 ; 1.1965882674624383E8 ; 6.460264799829665E10 ; 60187.65999999992
170 ; 825586.1544242864 ; 4.0229373329850715E8 ; 1.2048377204142153E8 ; 6.500493302587897E10 ; 60543.79999999992
171 ; 828181.9471429925 ; 4.023024078089936E8 ; 1.2130935819584581E8 ; 6.5407226759177475E10 ; 60899.93999999992
172 ; 830719.583233383 ; 4.023110509326945E8 ; 1.221375401429888E8 ; 6.5809529166986465E10 ; 61256.07999999992
173 ; 830879.6340854431 ; 4.023196624895093E8 ; 1.2296825972622219E8 ; 6.621184021791916E10 ; 61612.21999999992
174 ; 832351.6874540654 ; 4.023282423003043E8 ; 1.2379913936030763E8 ; 6.661415988040867E10 ; 61968.35999999992
175 ; 834841.4328246869 ; 4.023367901869055E8 ; 1.246314910477617E8 ; 6.701648812270897E10 ; 62324.49999999992
176 ; 837822.4524999346 ; 4.023453059720918E8 ; 1.2546633248058638E8 ; 6.7418824912895874E10 ; 62680.63999999992
177 ; 842106.9829865497 ; 4.0235378947958845E8 ; 1.2630415493308632E8 ; 6.7821170218867966E10 ; 63036.77999999992
