CSV File for the Network on Day 7
1 - Minute m 
2 - Power Consumed at minute m 
3 - Power Produced at minute m 
4 - Energy Consumed since the beginning of the day 
5 - Energy Produced since the beginning of the day 
6 - Energy Lost since the beginning of the day 
 
0 ; 4538803.365867318 ; 2.1063892577072313E8 ; 0.0 ; 0.0 ; 0.0
1 ; 4542516.535068922 ; 2.1094338583186832E8 ; 4538803.365867318 ; 2.1063892577072313E8 ; 356.14
2 ; 4547097.397512834 ; 2.1186552114522246E8 ; 9081319.900936238 ; 4.2158231160259145E8 ; 712.28
3 ; 4551136.803580452 ; 2.1340534658284476E8 ; 1.3628417298449073E7 ; 6.334478327478139E8 ; 1068.42
4 ; 4555732.490509136 ; 2.1556287604991356E8 ; 1.8179554102029525E7 ; 8.468531793306587E8 ; 1424.56
5 ; 4560498.970540414 ; 2.1833812223869595E8 ; 2.2735286592538662E7 ; 1.0624160553805722E9 ; 1780.6999999999998
6 ; 4565098.084643976 ; 2.217310963865625E8 ; 2.7295785563079074E7 ; 1.2807541776192682E9 ; 2136.8399999999997
7 ; 4569727.498917196 ; 2.257418080476204E8 ; 3.186088364772305E7 ; 1.5024852740058308E9 ; 2492.9799999999996
8 ; 4573144.857112072 ; 2.3037026488796416E8 ; 3.643061114664024E7 ; 1.728227082053451E9 ; 2849.1199999999994
9 ; 4576470.936622256 ; 2.3561647251426402E8 ; 4.100375600375231E7 ; 1.9585973469414153E9 ; 3205.2599999999993
10 ; 4579749.147897887 ; 2.4148043434434673E8 ; 4.558022694037457E7 ; 2.1942138194556794E9 ; 3561.399999999999
11 ; 4580762.45742497 ; 2.4796215152660975E8 ; 5.015997608827245E7 ; 2.435694253800026E9 ; 3917.539999999999
12 ; 4584554.242698755 ; 2.5506162291265556E8 ; 5.474073854569742E7 ; 2.683656405326636E9 ; 4273.679999999999
13 ; 4588516.381805652 ; 2.6277884508465737E8 ; 5.932529278839618E7 ; 2.938718028239291E9 ; 4629.82
14 ; 4593438.979716321 ; 2.711138124359453E8 ; 6.391380917020183E7 ; 3.2014968733239484E9 ; 4985.96
15 ; 4595467.232825858 ; 2.8006651730042434E8 ; 6.850724814991815E7 ; 3.4726106857598934E9 ; 5342.1
16 ; 4596695.697960745 ; 2.896369501239877E8 ; 7.310271538274401E7 ; 3.752677203060318E9 ; 5698.240000000001
17 ; 4601076.087750381 ; 2.9982509966926455E8 ; 7.769941108070476E7 ; 4.0423141531843057E9 ; 6054.380000000001
18 ; 4603578.780506537 ; 3.106309532439879E8 ; 8.230048716845514E7 ; 4.34213925285357E9 ; 6410.520000000001
19 ; 4606488.280315292 ; 3.2205449694297945E8 ; 8.690406594896168E7 ; 4.652770206097558E9 ; 6766.660000000002
20 ; 4610860.746743778 ; 3.340957158941799E8 ; 9.151055422927697E7 ; 4.974824703040538E9 ; 7122.800000000002
21 ; 4613991.760971192 ; 3.467545945001542E8 ; 9.612141497602075E7 ; 5.308920418934718E9 ; 7478.940000000002
22 ; 4616056.670520126 ; 3.600311166679019E8 ; 1.0073540673699194E8 ; 5.655675013434873E9 ; 7835.080000000003
23 ; 4620998.996661091 ; 3.739252660214187E8 ; 1.0535146340751207E8 ; 6.015706130102775E9 ; 8191.220000000003
24 ; 4625935.786560136 ; 3.8843702609311527E8 ; 1.0997246240417317E8 ; 6.389631396124193E9 ; 8547.360000000002
25 ; 4627486.673083368 ; 4.0094246228813946E8 ; 1.145983981907333E8 ; 6.778068422217308E9 ; 8903.500000000002
26 ; 4630265.495395107 ; 4.009486541017206E8 ; 1.1922588486381666E8 ; 7.179010884505447E9 ; 9259.640000000001
27 ; 4633201.514684363 ; 4.009551242883318E8 ; 1.2385615035921177E8 ; 7.579959538607168E9 ; 9615.78
28 ; 4636272.856707226 ; 4.0096185745147854E8 ; 1.2848935187389614E8 ; 7.9809146628955E9 ; 9971.92
29 ; 4637737.275058082 ; 4.009688387050319E8 ; 1.3312562473060337E8 ; 8.381876520346979E9 ; 10328.06
30 ; 4642901.959978261 ; 4.009760537287773E8 ; 1.3776336200566146E8 ; 8.782845359052011E9 ; 10684.199999999999
31 ; 4643313.054162057 ; 4.009834888069804E8 ; 1.424062639656397E8 ; 9.183821412780788E9 ; 11040.339999999998
32 ; 4646774.211209446 ; 4.0099113085232866E8 ; 1.4704957701980177E8 ; 9.584804901587769E9 ; 11396.479999999998
33 ; 4650429.412228831 ; 4.0099896741754746E8 ; 1.516963512310112E8 ; 9.985796032440098E9 ; 11752.619999999997
34 ; 4651690.234212889 ; 4.010069866968441E8 ; 1.5634678064324003E8 ; 1.0386794999857645E10 ; 12108.759999999997
35 ; 4653633.253453155 ; 4.010151775191417E8 ; 1.609984708774529E8 ; 1.078780198655449E10 ; 12464.899999999996
36 ; 4654691.25196246 ; 4.010235293348476E8 ; 1.6565210413090608E8 ; 1.1188817164073631E10 ; 12821.039999999995
37 ; 4658432.031523585 ; 4.010320321976778E8 ; 1.7030679538286853E8 ; 1.158984069340848E10 ; 13177.179999999995
38 ; 4660580.576242749 ; 4.0104067674283195E8 ; 1.749652274143921E8 ; 1.1990872725606157E10 ; 13533.319999999994
39 ; 4660229.728918121 ; 4.010494541626141E8 ; 1.7962580799063486E8 ; 1.239191340234899E10 ; 13889.459999999994
40 ; 4665334.553359549 ; 4.0105835618039894E8 ; 1.84286037719553E8 ; 1.2792962856511604E10 ; 14245.599999999993
41 ; 4666398.563988001 ; 4.0106737502367675E8 ; 1.8895137227291253E8 ; 1.3194021212692003E10 ; 14601.739999999993
42 ; 4666168.301873534 ; 4.010765033967653E8 ; 1.9361777083690053E8 ; 1.359508858771568E10 ; 14957.879999999992
43 ; 4670317.402848735 ; 4.010857344536469E8 ; 1.9828393913877407E8 ; 1.3996165091112444E10 ; 15314.019999999991
44 ; 4669988.882901809 ; 4.010950617712859E8 ; 2.0295425654162282E8 ; 1.4397250825566092E10 ; 15670.15999999999
45 ; 4670984.382733945 ; 4.011044793236911E8 ; 2.0762424542452464E8 ; 1.4798345887337378E10 ; 16026.29999999999
46 ; 4674056.153553445 ; 4.011139814569138E8 ; 2.1229522980725858E8 ; 1.5199450366661068E10 ; 16382.43999999999
47 ; 4675570.156275194 ; 4.0112356286511546E8 ; 2.1696928596081203E8 ; 1.5600564348117981E10 ; 16738.57999999999
48 ; 4678624.277551732 ; 4.0113321856778777E8 ; 2.2164485611708722E8 ; 1.6001687910983097E10 ; 17094.71999999999
49 ; 4680589.661162064 ; 4.0114294388817286E8 ; 2.2632348039463896E8 ; 1.6402821129550884E10 ; 17450.85999999999
50 ; 4681610.052872424 ; 4.0115273443289995E8 ; 2.3100407005580103E8 ; 1.6803964073439056E10 ; 17806.99999999999
51 ; 4680662.169294113 ; 4.011625860728334E8 ; 2.3568568010867345E8 ; 1.7205116807871956E10 ; 18163.13999999999
52 ; 4682597.054255075 ; 4.01172494925109E8 ; 2.4036634227796757E8 ; 1.760627939394479E10 ; 18519.279999999988
53 ; 4682757.5129604135 ; 4.011824573363235E8 ; 2.4504893933222264E8 ; 1.80074518888699E10 ; 18875.419999999987
54 ; 4682335.259209518 ; 4.011924698668333E8 ; 2.4973169684518304E8 ; 1.8408634346206223E10 ; 19231.559999999987
55 ; 4681802.248023796 ; 4.012025292761121E8 ; 2.5441403210439256E8 ; 1.8809826816073055E10 ; 19587.699999999986
56 ; 4684082.001259203 ; 4.0121263250911367E8 ; 2.5909583435241637E8 ; 1.9211029345349167E10 ; 19943.839999999986
57 ; 4683506.823562299 ; 4.012227766835847E8 ; 2.6377991635367557E8 ; 1.961224197785828E10 ; 20299.979999999985
58 ; 4686426.870216591 ; 4.0123295907827103E8 ; 2.6846342317723787E8 ; 2.0013464754541866E10 ; 20656.119999999984
59 ; 4687470.933389568 ; 4.01243177121962E8 ; 2.731498500474545E8 ; 2.0414697713620136E10 ; 21012.259999999984
60 ; 4688974.432071695 ; 4.0125342838331825E8 ; 2.77837320980844E8 ; 2.08159408907421E10 ; 21368.399999999983
61 ; 4690012.004910338 ; 4.0126371056143093E8 ; 2.825262954129157E8 ; 2.121719431912542E10 ; 21724.539999999983
62 ; 4690946.078720884 ; 4.01274021477062E8 ; 2.8721630741782606E8 ; 2.161845802968685E10 ; 22080.679999999982
63 ; 4690354.182843685 ; 4.0128435906451714E8 ; 2.919072534965469E8 ; 2.2019732051163914E10 ; 22436.81999999998
64 ; 4692742.536778199 ; 4.012947213641069E8 ; 2.965976076793906E8 ; 2.242101641022843E10 ; 22792.95999999998
65 ; 4692596.668130476 ; 4.013051065151525E8 ; 3.012903502161688E8 ; 2.2822311131592537E10 ; 23149.09999999998
66 ; 4695044.689283059 ; 4.013155127494978E8 ; 3.059829468842993E8 ; 2.322361623810769E10 ; 23505.23999999998
67 ; 4692987.082608316 ; 4.013259383854877E8 ; 3.1067799157358235E8 ; 2.3624931750857185E10 ; 23861.37999999998
68 ; 4693784.955838731 ; 4.01336381822381E8 ; 3.153709786561907E8 ; 2.4026257689242672E10 ; 24217.51999999998
69 ; 4695580.535706132 ; 4.0134684153516316E8 ; 3.2006476361202943E8 ; 2.4427594071065052E10 ; 24573.659999999978
70 ; 4696030.900937049 ; 4.0135731606972885E8 ; 3.2476034414773554E8 ; 2.4828940912600216E10 ; 24929.799999999977
71 ; 4697738.736604767 ; 4.0136780403840864E8 ; 3.2945637504867256E8 ; 2.5230298228669945E10 ; 25285.939999999977
72 ; 4697953.877580795 ; 4.013783041158111E8 ; 3.341541137852773E8 ; 2.5631666032708355E10 ; 25642.079999999976
73 ; 4696626.258577563 ; 4.013888150349588E8 ; 3.388520676628581E8 ; 2.6033044336824165E10 ; 25998.219999999976
74 ; 4694180.441938207 ; 4.013993355836938E8 ; 3.435486939214357E8 ; 2.6434433151859123E10 ; 26354.359999999975
75 ; 4696504.350304554 ; 4.0140986460133505E8 ; 3.4824287436337394E8 ; 2.6835832487442818E10 ; 26710.499999999975
76 ; 4694826.831793497 ; 4.01420400975566E8 ; 3.529393787136785E8 ; 2.723724235204415E10 ; 27066.639999999974
77 ; 4695223.041954878 ; 4.014309436395378E8 ; 3.5763420554547197E8 ; 2.763866275301972E10 ; 27422.779999999973
78 ; 4696105.819807407 ; 4.0144149156916916E8 ; 3.6232942858742684E8 ; 2.8040093696659256E10 ; 27778.919999999973
79 ; 4695332.943284994 ; 4.014520437806308E8 ; 3.6702553440723425E8 ; 2.8441535188228424E10 ; 28135.059999999972
80 ; 4696710.803508467 ; 4.014625993279996E8 ; 3.7172086735051924E8 ; 2.8842987232009056E10 ; 28491.19999999997
81 ; 4695381.584055813 ; 4.014731573010695E8 ; 3.764175781540277E8 ; 2.9244449831337055E10 ; 28847.33999999997
82 ; 4693673.298800096 ; 4.014837168233088E8 ; 3.8111295973808354E8 ; 2.9645922988638126E10 ; 29203.47999999997
83 ; 4697621.477394096 ; 4.014942770499518E8 ; 3.8580663303688365E8 ; 3.0047406705461433E10 ; 29559.61999999997
84 ; 4697186.050408416 ; 4.015048371662164E8 ; 3.9050425451427776E8 ; 3.0448900982511387E10 ; 29915.75999999997
85 ; 4696423.746912549 ; 4.015153963856374E8 ; 3.952014405646862E8 ; 3.0850405819677605E10 ; 30271.89999999997
86 ; 4697279.74356994 ; 4.0152595394850796E8 ; 3.998978643115987E8 ; 3.1251921216063244E10 ; 30628.039999999968
87 ; 4695471.4790242445 ; 4.0153650912042046E8 ; 4.045951440551686E8 ; 3.1653447170011753E10 ; 30984.179999999968
88 ; 4693692.744654859 ; 4.015470611909014E8 ; 4.0929061553419286E8 ; 3.205498367913217E10 ; 31340.319999999967
89 ; 4694760.531790678 ; 4.0155760947213155E8 ; 4.139843082788477E8 ; 3.2456530740323074E10 ; 31696.459999999966
90 ; 4691677.240979187 ; 4.0156815329774743E8 ; 4.1867906881063837E8 ; 3.2858088349795204E10 ; 32052.599999999966
91 ; 4691876.597712466 ; 4.015786920217167E8 ; 4.2337074605161756E8 ; 3.3259656503092953E10 ; 32408.739999999965
92 ; 4693957.14037006 ; 4.015892250172837E8 ; 4.2806262264933E8 ; 3.366123519511467E10 ; 32764.879999999965
93 ; 4694231.704519426 ; 4.01599751675979E8 ; 4.327565797897001E8 ; 3.4062824420131954E10 ; 33121.01999999997
94 ; 4692781.662680472 ; 4.016102714066903E8 ; 4.3745081149421954E8 ; 3.446442417180793E10 ; 33477.15999999997
95 ; 4692187.066442255 ; 4.016207836347885E8 ; 4.421435931569E8 ; 3.486603444321462E10 ; 33833.29999999997
96 ; 4688935.830876836 ; 4.016312878013067E8 ; 4.4683578022334224E8 ; 3.526765522684941E10 ; 34189.439999999966
97 ; 4689000.204014936 ; 4.016417833621682E8 ; 4.5152471605421907E8 ; 3.566928651465072E10 ; 34545.579999999965
98 ; 4688558.5288256975 ; 4.016522697874594E8 ; 4.56213716258234E8 ; 3.6070928298012886E10 ; 34901.719999999965
99 ; 4688152.217567831 ; 4.016627465607463E8 ; 4.609022747870597E8 ; 3.647258056780035E10 ; 35257.859999999964
100 ; 4686957.06695491 ; 4.0167321317843056E8 ; 4.655904270046276E8 ; 3.687424331436109E10 ; 35613.99999999996
101 ; 4688522.888105967 ; 4.016836691491418E8 ; 4.702773840715825E8 ; 3.727591652753952E10 ; 35970.13999999996
102 ; 4685630.669786168 ; 4.016941139931662E8 ; 4.749659069596885E8 ; 3.767760019668866E10 ; 36326.27999999996
103 ; 4684887.6914020525 ; 4.017045472419064E8 ; 4.7965153762947464E8 ; 3.807929431068182E10 ; 36682.41999999996
104 ; 4680817.339157356 ; 4.017149684373728E8 ; 4.843364253208767E8 ; 3.848099885792373E10 ; 37038.55999999996
105 ; 4683387.080195477 ; 4.01725377131703E8 ; 4.8901724266003406E8 ; 3.88827138263611E10 ; 37394.69999999996
106 ; 4683235.014646425 ; 4.0173577288670766E8 ; 4.9370062974022955E8 ; 3.9284439203492805E10 ; 37750.83999999996
107 ; 4682384.622317844 ; 4.0174615527344215E8 ; 4.9838386475487596E8 ; 3.968617497637952E10 ; 38106.97999999996
108 ; 4679639.445685433 ; 4.0175652387180126E8 ; 5.030662493771938E8 ; 4.008792113165296E10 ; 38463.11999999996
109 ; 4679095.385105438 ; 4.0176687827013624E8 ; 5.0774588882287925E8 ; 4.0489677655524765E10 ; 38819.25999999996
110 ; 4678588.759343158 ; 4.0177721806489205E8 ; 5.124249842079847E8 ; 4.08914445337949E10 ; 39175.39999999996
111 ; 4674864.456640265 ; 4.017875428602647E8 ; 5.1710357296732783E8 ; 4.1293221751859795E10 ; 39531.53999999996
112 ; 4673703.78594444 ; 4.0179785226787674E8 ; 5.217784374239681E8 ; 4.169500929472006E10 ; 39887.67999999996
113 ; 4673890.50260718 ; 4.018081459064695E8 ; 5.2645214120991254E8 ; 4.209680714698794E10 ; 40243.819999999956
114 ; 4671602.230338969 ; 4.018184234016119E8 ; 5.311260317125197E8 ; 4.249861529289441E10 ; 40599.959999999955
115 ; 4671367.689431372 ; 4.018286843854246E8 ; 5.357976339428587E8 ; 4.290043371629602E10 ; 40956.099999999955
116 ; 4670876.5038839765 ; 4.018389284963179E8 ; 5.404690016322901E8 ; 4.330226240068144E10 ; 41312.239999999954
117 ; 4668434.49960645 ; 4.0184915537874377E8 ; 5.451398781361741E8 ; 4.370410132917776E10 ; 41668.379999999954
118 ; 4666407.461291784 ; 4.0185936468296003E8 ; 5.498083126357806E8 ; 4.41059504845565E10 ; 42024.51999999995
119 ; 4666729.161950463 ; 4.0186955606480706E8 ; 5.544747200970724E8 ; 4.450780984923946E10 ; 42380.65999999995
120 ; 4664014.494237192 ; 4.0187972918549514E8 ; 5.591414492590228E8 ; 4.490967940530427E10 ; 42736.79999999995
121 ; 4662561.152781878 ; 4.018898837114033E8 ; 5.6380546375326E8 ; 4.531155913448976E10 ; 43092.93999999995
122 ; 4659914.544506018 ; 4.019000193138872E8 ; 5.684680249060419E8 ; 4.5713449018201164E10 ; 43449.07999999995
123 ; 4659521.666740705 ; 4.019101356690973E8 ; 5.731279394505479E8 ; 4.611534903751505E10 ; 43805.21999999995
124 ; 4656729.338596886 ; 4.0192023245780563E8 ; 5.777874611172886E8 ; 4.651725917318415E10 ; 44161.35999999995
125 ; 4651007.589262029 ; 4.019303093652413E8 ; 5.824441904558855E8 ; 4.691917940564195E10 ; 44517.49999999995
126 ; 4649135.571636189 ; 4.019403660809336E8 ; 5.870951980451475E8 ; 4.7321109715007195E10 ; 44873.63999999995
127 ; 4644975.504992427 ; 4.019504022985629E8 ; 5.917443336167837E8 ; 4.772305008108813E10 ; 45229.77999999995
128 ; 4643231.380954521 ; 4.01960417715819E8 ; 5.963893091217762E8 ; 4.812500048338669E10 ; 45585.91999999995
129 ; 4643383.847549022 ; 4.0197041203426564E8 ; 6.010325405027307E8 ; 4.852696090110251E10 ; 45942.05999999995
130 ; 4638103.13909513 ; 4.0198038495921195E8 ; 6.056759243502798E8 ; 4.892893131313677E10 ; 46298.199999999946
131 ; 4634298.697579422 ; 4.019903361995895E8 ; 6.10314027489375E8 ; 4.9330911698095985E10 ; 46654.339999999946
132 ; 4632452.450735225 ; 4.020002654678358E8 ; 6.149483261869544E8 ; 4.973290203429558E10 ; 47010.479999999945
133 ; 4631658.022714743 ; 4.020101724797826E8 ; 6.195807786376896E8 ; 5.013490229976341E10 ; 47366.619999999944
134 ; 4628252.926127029 ; 4.0202005695454955E8 ; 6.242124366604043E8 ; 5.0536912472243195E10 ; 47722.759999999944
135 ; 4625313.7705438575 ; 4.020299186144428E8 ; 6.288406895865314E8 ; 5.093893252919775E10 ; 48078.89999999994
136 ; 4625276.4655395895 ; 4.0203975718485844E8 ; 6.334660033570752E8 ; 5.134096244781219E10 ; 48435.03999999994
137 ; 4622821.509268024 ; 4.020495723941902E8 ; 6.380912798226148E8 ; 5.174300220499705E10 ; 48791.17999999994
138 ; 4619989.71307486 ; 4.020593639737408E8 ; 6.427141013318828E8 ; 5.2145051777391235E10 ; 49147.31999999994
139 ; 4616160.360567844 ; 4.0206913165763867E8 ; 6.473340910449576E8 ; 5.2547111141364975E10 ; 49503.45999999994
140 ; 4613424.897700312 ; 4.020788751827567E8 ; 6.519502514055254E8 ; 5.294918027302261E10 ; 49859.59999999994
141 ; 4612841.246731534 ; 4.020885942886362E8 ; 6.565636763032258E8 ; 5.335125914820537E10 ; 50215.73999999994
142 ; 4608574.529048951 ; 4.02098288717413E8 ; 6.611765175499573E8 ; 5.3753347742494E10 ; 50571.87999999994
143 ; 4608355.918041764 ; 4.0210795821374774E8 ; 6.657850920790062E8 ; 5.415544603121142E10 ; 50928.01999999994
144 ; 4603639.056433554 ; 4.0211760252475846E8 ; 6.703934479970479E8 ; 5.455755398942516E10 ; 51284.15999999994
145 ; 4600976.794941704 ; 4.0212722139995706E8 ; 6.749970870534815E8 ; 5.495967159194992E10 ; 51640.29999999994
146 ; 4601462.905982902 ; 4.0213681459118736E8 ; 6.795980638484231E8 ; 5.536179881334988E10 ; 51996.43999999994
147 ; 4601898.998900415 ; 4.021463818525673E8 ; 6.84199526754406E8 ; 5.576393562794106E10 ; 52352.579999999936
148 ; 4597440.9113522265 ; 4.021559229404321E8 ; 6.888014257533064E8 ; 5.616608200979363E10 ; 52708.719999999936
149 ; 4597672.114990608 ; 4.021654376132809E8 ; 6.933988666646587E8 ; 5.656823793273406E10 ; 53064.859999999935
150 ; 4599574.195958572 ; 4.0217492563172567E8 ; 6.979965387796493E8 ; 5.697040337034734E10 ; 53420.999999999935
151 ; 4596069.103158933 ; 4.0218438675844175E8 ; 7.025961129756079E8 ; 5.737257829597907E10 ; 53777.139999999934
152 ; 4593471.786708551 ; 4.021938207581209E8 ; 7.071921820787668E8 ; 5.777476268273751E10 ; 54133.27999999993
153 ; 4592043.929565168 ; 4.0220322739742625E8 ; 7.117856538654754E8 ; 5.817695650349563E10 ; 54489.41999999993
154 ; 4591908.636127161 ; 4.0221260644494915E8 ; 7.163776977950406E8 ; 5.857915973089305E10 ; 54845.55999999993
155 ; 4591361.307241602 ; 4.022219576711678E8 ; 7.209696064311677E8 ; 5.8981372337338E10 ; 55201.69999999993
156 ; 4591514.455620628 ; 4.022312808484077E8 ; 7.255609677384093E8 ; 5.938359429500916E10 ; 55557.83999999993
157 ; 4590530.890761489 ; 4.0224057575080377E8 ; 7.301524821940299E8 ; 5.978582557585757E10 ; 55913.97999999993
158 ; 4588686.96476238 ; 4.0224984215426385E8 ; 7.347430130847914E8 ; 6.018806615160837E10 ; 56270.11999999993
159 ; 4588789.959391724 ; 4.022590798364341E8 ; 7.393317000495538E8 ; 6.0590315993762634E10 ; 56626.25999999993
160 ; 4585848.938329993 ; 4.022682885766654E8 ; 7.439204900089455E8 ; 6.099257507359907E10 ; 56982.39999999993
161 ; 4585888.289598266 ; 4.022774681559814E8 ; 7.485063389472754E8 ; 6.1394843362175735E10 ; 57338.53999999993
162 ; 4583685.987104057 ; 4.022866183570478E8 ; 7.530922272368736E8 ; 6.179712083033172E10 ; 57694.67999999993
163 ; 4581388.2711542165 ; 4.02295738964143E8 ; 7.576759132239777E8 ; 6.219940744868877E10 ; 58050.81999999993
164 ; 4581171.395784457 ; 4.0230482976312995E8 ; 7.622573014951319E8 ; 6.260170318765291E10 ; 58406.95999999993
165 ; 4579091.485348962 ; 4.02313890541429E8 ; 7.668384728909163E8 ; 6.300400801741604E10 ; 58763.099999999926
166 ; 4578598.300173001 ; 4.023229210879918E8 ; 7.714175643762653E8 ; 6.3406321907957466E10 ; 59119.239999999925
167 ; 4574509.854823908 ; 4.0233192119327664E8 ; 7.759961626764383E8 ; 6.3808644829045456E10 ; 59475.379999999925
168 ; 4572733.37890354 ; 4.0234089064922464E8 ; 7.805706725312623E8 ; 6.421097675023873E10 ; 59831.519999999924
169 ; 4573467.876715572 ; 4.023498292492365E8 ; 7.851434059101658E8 ; 6.4613317640887955E10 ; 60187.65999999992
170 ; 4568612.207726599 ; 4.023587367881508E8 ; 7.897168737868813E8 ; 6.501566747013719E10 ; 60543.79999999992
171 ; 4570365.803699801 ; 4.0236761306222284E8 ; 7.942854859946079E8 ; 6.541802620692534E10 ; 60899.93999999992
172 ; 4567971.798744887 ; 4.023764578691043E8 ; 7.988558517983078E8 ; 6.5820393819987564E10 ; 61256.07999999992
173 ; 4566795.80853386 ; 4.023852710078242E8 ; 8.034238235970527E8 ; 6.622277027785667E10 ; 61612.21999999992
174 ; 4567375.464832395 ; 4.023940522787697E8 ; 8.079906194055866E8 ; 6.6625155548864494E10 ; 61968.35999999992
175 ; 4569103.421217893 ; 4.024028014836687E8 ; 8.12557994870419E8 ; 6.7027549601143265E10 ; 62324.49999999992
176 ; 4566404.368816991 ; 4.0241151842557245E8 ; 8.17127098291637E8 ; 6.742995240262693E10 ; 62680.63999999992
177 ; 4569578.183109034 ; 4.024202029088392E8 ; 8.216935026604539E8 ; 6.7832363921052505E10 ; 63036.77999999992
