CSV File for the Network on Day 217
1 - Minute m 
2 - Power Consumed at minute m 
3 - Power Produced at minute m 
4 - Energy Consumed since the beginning of the day 
5 - Energy Produced since the beginning of the day 
6 - Energy Lost since the beginning of the day 
 
0 ; 484567.9763273365 ; 2.1059026237290215E8 ; 0.0 ; 0.0 ; 0.0
1 ; 488702.426553723 ; 2.1089412257526517E8 ; 484567.9763273365 ; 2.1059026237290215E8 ; 356.14
2 ; 494810.4695929847 ; 2.118156941893803E8 ; 973270.4028810596 ; 4.214843849481673E8 ; 712.28
3 ; 497647.55444208207 ; 2.1335499946245426E8 ; 1468080.8724740443 ; 6.333000791375476E8 ; 1068.42
4 ; 503724.5254298348 ; 2.1551205964791083E8 ; 1965728.4269161264 ; 8.466550786000018E8 ; 1424.56
5 ; 508425.0236597298 ; 2.1828689453404135E8 ; 2469452.9523459612 ; 1.0621671382479126E9 ; 1780.6999999999998
6 ; 513212.9304089437 ; 2.2167952195568705E8 ; 2977877.976005691 ; 1.280454032781954E9 ; 2136.8399999999997
7 ; 516801.53609097627 ; 2.256899573122499E8 ; 3491090.9064146345 ; 1.502133554737641E9 ; 2492.9799999999996
8 ; 520448.219023919 ; 2.3031821311891127E8 ; 4007892.4425056106 ; 1.727823512049891E9 ; 2849.1199999999994
9 ; 526517.14119459 ; 2.3556429861926454E8 ; 4528340.66152953 ; 1.9581417251688023E9 ; 3205.2599999999993
10 ; 527512.5525407546 ; 2.4142821948600012E8 ; 5054857.80272412 ; 2.193706023788067E9 ; 3561.399999999999
11 ; 531668.709191446 ; 2.4790997763161027E8 ; 5582370.355264875 ; 2.435134243274067E9 ; 3917.539999999999
12 ; 537201.1207089897 ; 2.5500957114360267E8 ; 6114039.064456321 ; 2.6830442209056773E9 ; 4273.679999999999
13 ; 540928.4595451888 ; 2.627269943492869E8 ; 6651240.185165311 ; 2.93805379204928E9 ; 4629.82
14 ; 544925.4428731552 ; 2.710622380050698E8 ; 7192168.6447105 ; 3.200780786398567E9 ; 4985.96
15 ; 550201.6301363158 ; 2.800152895957697E8 ; 7737094.0875836555 ; 3.471843024403637E9 ; 5342.1
16 ; 553022.3473986073 ; 2.895861337219849E8 ; 8287295.717719971 ; 3.751858313999407E9 ; 5698.240000000001
17 ; 555977.7917274 ; 2.99774752548874E8 ; 8840318.06511858 ; 4.0414444477213917E9 ; 6054.380000000001
18 ; 559059.8010455807 ; 3.105811262881457E8 ; 9396295.856845979 ; 4.341219200270266E9 ; 6410.520000000001
19 ; 564826.8257341083 ; 3.220052336863763E8 ; 9955355.657891558 ; 4.651800326558412E9 ; 6766.660000000002
20 ; 567313.2046011937 ; 3.340470524963589E8 ; 1.0520182483625667E7 ; 4.973805560244788E9 ; 7122.800000000002
21 ; 570851.1664610297 ; 3.467065599131931E8 ; 1.108749568822686E7 ; 5.307852612741147E9 ; 7478.940000000002
22 ; 573392.7144677934 ; 3.599837329623849E8 ; 1.165834685468789E7 ; 5.65455917265434E9 ; 7835.080000000003
23 ; 579821.6007358719 ; 3.738785488326286E8 ; 1.2231739569155684E7 ; 6.014542905616725E9 ; 8191.220000000003
24 ; 582916.0214529025 ; 3.883909851506596E8 ; 1.2811561169891555E7 ; 6.388421454449353E9 ; 8547.360000000002
25 ; 587635.5577494504 ; 4.008971019956881E8 ; 1.3394477191344457E7 ; 6.776812439600013E9 ; 8903.500000000002
26 ; 591622.2150250586 ; 4.009039741383182E8 ; 1.3982112749093907E7 ; 7.177709541595701E9 ; 9259.640000000001
27 ; 594612.3430839318 ; 4.0091112020811224E8 ; 1.4573734964118965E7 ; 7.578613515734019E9 ; 9615.78
28 ; 597039.2119067445 ; 4.0091852126396716E8 ; 1.5168347307202896E7 ; 7.979524635942131E9 ; 9971.92
29 ; 601026.5438070373 ; 4.009261594231885E8 ; 1.576538651910964E7 ; 8.380443157206099E9 ; 10328.06
30 ; 603637.9124210646 ; 4.009340178762671E8 ; 1.6366413062916677E7 ; 8.781369316629288E9 ; 10684.199999999999
31 ; 609787.4302693205 ; 4.009420808797587E8 ; 1.6970050975337744E7 ; 9.182303334505554E9 ; 11040.339999999998
32 ; 612762.2722313956 ; 4.009503337324837E8 ; 1.7579838405607063E7 ; 9.583245415385313E9 ; 11396.479999999998
33 ; 615260.3380965948 ; 4.009587627395062E8 ; 1.819260067783846E7 ; 9.984195749117796E9 ; 11752.619999999997
34 ; 619743.2162373711 ; 4.009673551676034E8 ; 1.8807861015935056E7 ; 1.0385154511857302E10 ; 12108.759999999997
35 ; 621635.6928790142 ; 4.0097609919523716E8 ; 1.9427604232172426E7 ; 1.0786121867024904E10 ; 12464.899999999996
36 ; 626552.3489341576 ; 4.009849838594173E8 ; 2.004923992505144E7 ; 1.1187097966220142E10 ; 12821.039999999995
37 ; 628876.0666988896 ; 4.009939990013063E8 ; 2.06757922739856E7 ; 1.158808295007956E10 ; 13177.179999999995
38 ; 632902.0279290834 ; 4.010031352119636E8 ; 2.130466834068449E7 ; 1.1989076949080866E10 ; 13533.319999999994
39 ; 636618.2269021851 ; 4.0101238377925575E8 ; 2.193757036861357E7 ; 1.239008008429283E10 ; 13889.459999999994
40 ; 640961.0817874458 ; 4.010217366366556E8 ; 2.2574188595515758E7 ; 1.2791092468072084E10 ; 14245.599999999993
41 ; 642166.6795222685 ; 4.010311863144207E8 ; 2.3215149677303202E7 ; 1.319211420470874E10 ; 14601.739999999993
42 ; 645213.5348974194 ; 4.010407258934517E8 ; 2.385731635682547E7 ; 1.359314539102316E10 ; 14957.879999999992
43 ; 646664.3169878589 ; 4.0105034896199405E8 ; 2.450252989172289E7 ; 1.3994186116916613E10 ; 15314.019999999991
44 ; 649335.1627686338 ; 4.010600495752386E8 ; 2.514919420871075E7 ; 1.4395236465878607E10 ; 15670.15999999999
45 ; 653041.2363268319 ; 4.0106982221779966E8 ; 2.579852937147938E7 ; 1.4796296515453846E10 ; 16026.29999999999
46 ; 656216.4990660544 ; 4.0107966176899564E8 ; 2.6451570607806213E7 ; 1.5197366337671646E10 ; 16382.43999999999
47 ; 657955.1831979471 ; 4.010895634708172E8 ; 2.7107787106872268E7 ; 1.5598445999440641E10 ; 16738.57999999999
48 ; 661366.6476075584 ; 4.0109952289844763E8 ; 2.7765742290070213E7 ; 1.5999535562911459E10 ; 17094.71999999999
49 ; 663540.9047578524 ; 4.0110953593318105E8 ; 2.842710893767777E7 ; 1.6400635085809906E10 ; 17450.85999999999
50 ; 664129.2136023581 ; 4.011195987375823E8 ; 2.9090649842435624E7 ; 1.6801744621743088E10 ; 17806.99999999999
51 ; 668005.9525569158 ; 4.011297077327285E8 ; 2.975477905603798E7 ; 1.720286422048067E10 ; 18163.13999999999
52 ; 669467.2935274177 ; 4.011398595773742E8 ; 3.0422785008594897E7 ; 1.7603993928213398E10 ; 18519.279999999988
53 ; 671213.1469147785 ; 4.011500511488913E8 ; 3.1092252302122314E7 ; 1.800513378779077E10 ; 18875.419999999987
54 ; 671749.414361869 ; 4.011602795258375E8 ; 3.1763465449037094E7 ; 1.8406283838939663E10 ; 19231.559999999987
55 ; 674113.4616310433 ; 4.01170541972018E8 ; 3.243521486339896E7 ; 1.88074441184655E10 ; 19587.699999999986
56 ; 678547.8342352004 ; 4.01180835921915E8 ; 3.3109328325030006E7 ; 1.920861466043752E10 ; 19943.839999999986
57 ; 679263.2572066019 ; 4.011911589673637E8 ; 3.3787876159265205E7 ; 1.9609795496359432E10 ; 20299.979999999985
58 ; 681601.0770344267 ; 4.0120150884536904E8 ; 3.446713941647181E7 ; 2.0010986655326797E10 ; 20656.119999999984
59 ; 684643.594145387 ; 4.012118834269607E8 ; 3.514874049350624E7 ; 2.0412188164172165E10 ; 21012.259999999984
60 ; 686943.896589142 ; 4.012222807069945E8 ; 3.5833384087651625E7 ; 2.0813400047599125E10 ; 21368.399999999983
61 ; 688272.6988718457 ; 4.012326987948167E8 ; 3.652032798424077E7 ; 2.1214622328306118E10 ; 21724.539999999983
62 ; 692540.863709471 ; 4.0124313590571296E8 ; 3.7208600683112614E7 ; 2.1615855027100933E10 ; 22080.679999999982
63 ; 694599.656536725 ; 4.012535903530729E8 ; 3.7901141546822086E7 ; 2.2017098163006645E10 ; 22436.81999999998
64 ; 696329.0719143141 ; 4.0126406054120517E8 ; 3.8595741203358814E7 ; 2.241835175335972E10 ; 22792.95999999998
65 ; 699542.8896906157 ; 4.012745449587466E8 ; 3.929207027527313E7 ; 2.2819615813900925E10 ; 23149.09999999998
66 ; 701768.0823545658 ; 4.012850421726104E8 ; 3.9991613164963745E7 ; 2.3220890358859673E10 ; 23505.23999999998
67 ; 702953.3970043754 ; 4.012955508224274E8 ; 4.069338124731831E7 ; 2.3622175401032284E10 ; 23861.37999999998
68 ; 704672.5266564465 ; 4.013060696154362E8 ; 4.1396334644322686E7 ; 2.402347095185471E10 ; 24217.51999999998
69 ; 706423.4848075287 ; 4.0131659732178175E8 ; 4.2101007170979135E7 ; 2.4424777021470146E10 ; 24573.659999999978
70 ; 709221.5316784108 ; 4.0132713277018845E8 ; 4.280743065578666E7 ; 2.4826093618791927E10 ; 24929.799999999977
71 ; 710564.0226401902 ; 4.013376748439733E8 ; 4.351665218746507E7 ; 2.5227420751562115E10 ; 25285.939999999977
72 ; 711270.3042319221 ; 4.0134822247737086E8 ; 4.422721621010526E7 ; 2.562875842640609E10 ; 25642.079999999976
73 ; 716299.529312776 ; 4.013587746521424E8 ; 4.493848651433718E7 ; 2.603010664888346E10 ; 25998.219999999976
74 ; 715330.3683339334 ; 4.013693303944464E8 ; 4.565478604364996E7 ; 2.6431465423535603E10 ; 26354.359999999975
75 ; 717478.0007650317 ; 4.013798887719452E8 ; 4.637011641198389E7 ; 2.683283475393005E10 ; 26710.499999999975
76 ; 718551.6017461431 ; 4.0139044889113206E8 ; 4.7087594412748925E7 ; 2.7234214642701996E10 ; 27066.639999999974
77 ; 720227.8362428986 ; 4.0140100989485645E8 ; 4.780614601449507E7 ; 2.763560509159313E10 ; 27422.779999999973
78 ; 720324.1130192246 ; 4.01411570960033E8 ; 4.852637385073797E7 ; 2.8037006101487984E10 ; 27778.919999999973
79 ; 724157.7188829199 ; 4.014221312955188E8 ; 4.9246697963757195E7 ; 2.8438417672448017E10 ; 28135.059999999972
80 ; 724648.1065544544 ; 4.0143269014014494E8 ; 4.997085568264011E7 ; 2.8839839803743534E10 ; 28491.19999999997
81 ; 727317.422205694 ; 4.0144324676088965E8 ; 5.069550378919457E7 ; 2.924127249388368E10 ; 28847.33999999997
82 ; 729217.8323756923 ; 4.014538004511823E8 ; 5.142282121140026E7 ; 2.964271574064457E10 ; 29203.47999999997
83 ; 731185.3184640029 ; 4.0146435052932715E8 ; 5.215203904377595E7 ; 3.0044169541095753E10 ; 29559.61999999997
84 ; 732974.3534718928 ; 4.0147489633703756E8 ; 5.288322436223996E7 ; 3.044563389162508E10 ; 29915.75999999997
85 ; 736972.2388895153 ; 4.0148543723807216E8 ; 5.361619871571185E7 ; 3.0847108787962116E10 ; 30271.89999999997
86 ; 736459.7333086627 ; 4.014959726169647E8 ; 5.435317095460136E7 ; 3.1248594225200188E10 ; 30628.039999999968
87 ; 737926.4256658629 ; 4.015065018778411E8 ; 5.508963068791003E7 ; 3.1650090197817154E10 ; 30984.179999999968
88 ; 738773.3649683391 ; 4.0151702444331545E8 ; 5.582755711357589E7 ; 3.2051596699694996E10 ; 31340.319999999967
89 ; 742227.519573348 ; 4.01527539753461E8 ; 5.656633047854423E7 ; 3.245311372413831E10 ; 31696.459999999966
90 ; 741570.3282945611 ; 4.01538047264849E8 ; 5.730855799811757E7 ; 3.285464126389177E10 ; 32052.599999999966
91 ; 744136.2785880672 ; 4.0154854644965065E8 ; 5.8050128326412134E7 ; 3.325617931115662E10 ; 32408.739999999965
92 ; 746536.4582355017 ; 4.0155903679479784E8 ; 5.87942646050002E7 ; 3.365772785760627E10 ; 32764.879999999965
93 ; 747456.9008367218 ; 4.015695178011981E8 ; 5.95408010632357E7 ; 3.4059286894401066E10 ; 33121.01999999997
94 ; 747807.126608328 ; 4.0157998898300004E8 ; 6.028825796407242E7 ; 3.446085641220226E10 ; 33477.15999999997
95 ; 749232.4836141823 ; 4.015904498669047E8 ; 6.103606509068075E7 ; 3.4862436401185265E10 ; 33833.29999999997
96 ; 750294.1337223491 ; 4.0160089999152136E8 ; 6.178529757429493E7 ; 3.526402685105217E10 ; 34189.439999999966
97 ; 751126.0018485568 ; 4.016113389067627E8 ; 6.253559170801728E7 ; 3.566562775104369E10 ; 34545.579999999965
98 ; 751281.6846940198 ; 4.0162176617327785E8 ; 6.328671770986584E7 ; 3.6067239089950455E10 ; 34901.719999999965
99 ; 753269.1158809644 ; 4.016321813619198E8 ; 6.403799939455986E7 ; 3.646886085612373E10 ; 35257.859999999964
100 ; 754826.0583192722 ; 4.016425840532458E8 ; 6.479126851044083E7 ; 3.687049303748566E10 ; 35613.99999999996
101 ; 756173.7237143675 ; 4.016529738370472E8 ; 6.55460945687601E7 ; 3.72721356215389E10 ; 35970.13999999996
102 ; 756554.0838569553 ; 4.016633503119085E8 ; 6.630226829247446E7 ; 3.7673788595375946E10 ; 36326.27999999996
103 ; 759160.3078906324 ; 4.016737130847908E8 ; 6.705882237633142E7 ; 3.807545194568785E10 ; 36682.41999999996
104 ; 758984.8030177319 ; 4.0168406177064216E8 ; 6.781798268422206E7 ; 3.8477125658772644E10 ; 37038.55999999996
105 ; 760942.0664140075 ; 4.016943959920281E8 ; 6.85769674872398E7 ; 3.887880972054329E10 ; 37394.69999999996
106 ; 763390.1036849206 ; 4.017047153787858E8 ; 6.93379095536538E7 ; 3.928050411653532E10 ; 37750.83999999996
107 ; 763112.0620950724 ; 4.017150195676966E8 ; 7.010129965733872E7 ; 3.96822088319141E10 ; 38106.97999999996
108 ; 762510.8605742594 ; 4.017253082021779E8 ; 7.08644117194338E7 ; 4.00839238514818E10 ; 38463.11999999996
109 ; 764165.4953352152 ; 4.0173558093199253E8 ; 7.162692258000806E7 ; 4.0485649159683975E10 ; 38819.25999999996
110 ; 767727.0278146719 ; 4.0174583741297376E8 ; 7.239108807534328E7 ; 4.088738474061597E10 ; 39175.39999999996
111 ; 766496.9708681356 ; 4.017560773067666E8 ; 7.315881510315795E7 ; 4.128913057802894E10 ; 39531.53999999996
112 ; 769536.6078677737 ; 4.0176630028058267E8 ; 7.39253120740261E7 ; 4.169088665533571E10 ; 39887.67999999996
113 ; 771986.1685626131 ; 4.017765060069686E8 ; 7.469484868189387E7 ; 4.2092652955616295E10 ; 40243.819999999956
114 ; 770752.8759306868 ; 4.017866941635875E8 ; 7.546683485045648E7 ; 4.249442946162326E10 ; 40599.959999999955
115 ; 770716.4039250962 ; 4.017968644330118E8 ; 7.623758772638716E7 ; 4.289621615578685E10 ; 40956.099999999955
116 ; 773452.68663973 ; 4.0180701650252736E8 ; 7.700830413031225E7 ; 4.3298013020219864E10 ; 41312.239999999954
117 ; 771864.2155529057 ; 4.018171500639479E8 ; 7.778175681695198E7 ; 4.369982003672239E10 ; 41668.379999999954
118 ; 772492.1967457256 ; 4.0182726481343985E8 ; 7.855362103250489E7 ; 4.410163718678634E10 ; 42024.51999999995
119 ; 774795.419420465 ; 4.018373604513551E8 ; 7.932611322925061E7 ; 4.450346445159978E10 ; 42380.65999999995
120 ; 773665.6944991547 ; 4.018474366820741E8 ; 8.010090864867108E7 ; 4.490530181205113E10 ; 42736.79999999995
121 ; 776749.2422666559 ; 4.01857493213856E8 ; 8.087457434317023E7 ; 4.530714924873321E10 ; 43092.93999999995
122 ; 776859.1909722675 ; 4.018675297586967E8 ; 8.165132358543688E7 ; 4.570900674194707E10 ; 43449.07999999995
123 ; 776976.3290042211 ; 4.018775460321943E8 ; 8.242818277640915E7 ; 4.6110874271705765E10 ; 43805.21999999995
124 ; 776382.1620606796 ; 4.018875417534217E8 ; 8.320515910541338E7 ; 4.651275181773796E10 ; 44161.35999999995
125 ; 776929.8364291702 ; 4.0189751664480495E8 ; 8.398154126747406E7 ; 4.691463935949138E10 ; 44517.49999999995
126 ; 777171.7243153051 ; 4.019074704320081E8 ; 8.475847110390322E7 ; 4.7316536876136185E10 ; 44873.63999999995
127 ; 776639.5439859177 ; 4.019174028438239E8 ; 8.553564282821852E7 ; 4.771844434656819E10 ; 45229.77999999995
128 ; 776235.0026347435 ; 4.019273136120697E8 ; 8.631228237220444E7 ; 4.812036174941202E10 ; 45585.91999999995
129 ; 774140.9816131514 ; 4.019372024714888E8 ; 8.708851737483919E7 ; 4.8522289063024086E10 ; 45942.05999999995
130 ; 775450.6719404355 ; 4.019470691596557E8 ; 8.786265835645233E7 ; 4.8924226265495575E10 ; 46298.199999999946
131 ; 773754.4027517682 ; 4.019569134168876E8 ; 8.863810902839276E7 ; 4.932617333465523E10 ; 46654.339999999946
132 ; 775182.0907955248 ; 4.0196673498615855E8 ; 8.941186343114454E7 ; 4.972813024807211E10 ; 47010.479999999945
133 ; 774485.8886638526 ; 4.0197653361301875E8 ; 9.018704552194007E7 ; 5.013009698305827E10 ; 47366.619999999944
134 ; 776913.9525346428 ; 4.019863090455173E8 ; 9.096153141060393E7 ; 5.0532073516671295E10 ; 47722.759999999944
135 ; 775928.5073011483 ; 4.019960610341289E8 ; 9.173844536313857E7 ; 5.093405982571681E10 ; 48078.89999999994
136 ; 776561.8735437157 ; 4.0200578933168364E8 ; 9.251437387043972E7 ; 5.133605588675094E10 ; 48435.03999999994
137 ; 776425.5258223411 ; 4.0201549369330037E8 ; 9.329093574398343E7 ; 5.173806167608262E10 ; 48791.17999999994
138 ; 778194.3037627427 ; 4.020251738763234E8 ; 9.406736126980577E7 ; 5.214007716977592E10 ; 49147.31999999994
139 ; 777694.2702269591 ; 4.0203482964026153E8 ; 9.484555557356852E7 ; 5.254210234365224E10 ; 49503.45999999994
140 ; 776401.5709868544 ; 4.020444607467308E8 ; 9.562324984379548E7 ; 5.2944137173292496E10 ; 49859.59999999994
141 ; 776386.4667672358 ; 4.0205406695939875E8 ; 9.639965141478233E7 ; 5.334618163403923E10 ; 50215.73999999994
142 ; 777217.2675477333 ; 4.0206364804393256E8 ; 9.717603788154957E7 ; 5.374823570099863E10 ; 50571.87999999994
143 ; 776905.5759229083 ; 4.0207320376794827E8 ; 9.79532551490973E7 ; 5.415029934904256E10 ; 50928.01999999994
144 ; 776692.2404030742 ; 4.0208273390096354E8 ; 9.87301607250202E7 ; 5.455237255281051E10 ; 51284.15999999994
145 ; 779105.9122762595 ; 4.020922382143516E8 ; 9.950685296542327E7 ; 5.495445528671147E10 ; 51640.29999999994
146 ; 778872.077005596 ; 4.021017164812976E8 ; 1.0028595887769952E8 ; 5.535654752492582E10 ; 51996.43999999994
147 ; 780861.0128785697 ; 4.021111684767574E8 ; 1.0106483095470512E8 ; 5.575864924140712E10 ; 52352.579999999936
148 ; 783551.6515676838 ; 4.0212059397741735E8 ; 1.0184569196758369E8 ; 5.616076040988388E10 ; 52708.719999999936
149 ; 786147.906556419 ; 4.0212999276165664E8 ; 1.0262924361915137E8 ; 5.65628810038613E10 ; 53064.859999999935
150 ; 787139.7253982438 ; 4.021393646095107E8 ; 1.0341539152570778E8 ; 5.6965010996622955E10 ; 53420.999999999935
151 ; 787671.7164315663 ; 4.02148709302637E8 ; 1.0420253125110602E8 ; 5.736715036123247E10 ; 53777.139999999934
152 ; 790985.0940226713 ; 4.021580266242815E8 ; 1.049902029675376E8 ; 5.77692990705351E10 ; 54133.27999999993
153 ; 791497.738244503 ; 4.021673163592472E8 ; 1.0578118806156027E8 ; 5.8171457097159386E10 ; 54489.41999999993
154 ; 792806.6424002371 ; 4.0217657829386395E8 ; 1.0657268579980478E8 ; 5.857362441351863E10 ; 54845.55999999993
155 ; 797188.1840228294 ; 4.021858122159592E8 ; 1.0736549244220501E8 ; 5.897580099181249E10 ; 55201.69999999993
156 ; 798690.9270568766 ; 4.021950179148308E8 ; 1.0816268062622784E8 ; 5.937798680402845E10 ; 55557.83999999993
157 ; 800693.9244464695 ; 4.022041951812203E8 ; 1.0896137155328472E8 ; 5.978018182194328E10 ; 55913.97999999993
158 ; 803822.3177605781 ; 4.0221334380728745E8 ; 1.0976206547773118E8 ; 6.0182386017124504E10 ; 56270.11999999993
159 ; 802502.8374966838 ; 4.0222246358658665E8 ; 1.1056588779549176E8 ; 6.058459936093179E10 ; 56626.25999999993
160 ; 805957.8116994919 ; 4.0223155431404316E8 ; 1.1136839063298844E8 ; 6.098682182451838E10 ; 56982.39999999993
161 ; 808354.1138272978 ; 4.022406157859312E8 ; 1.1217434844468793E8 ; 6.138905337883242E10 ; 57338.53999999993
162 ; 808933.3655854141 ; 4.0224964779985327E8 ; 1.1298270255851524E8 ; 6.1791293994618355E10 ; 57694.67999999993
163 ; 810637.8637098365 ; 4.0225865015471894E8 ; 1.1379163592410065E8 ; 6.2193543642418205E10 ; 58050.81999999993
164 ; 814089.950255662 ; 4.0226762265072644E8 ; 1.1460227378781049E8 ; 6.259580229257292E10 ; 58406.95999999993
165 ; 814475.4604272273 ; 4.022765650893434E8 ; 1.1541636373806615E8 ; 6.299806991522365E10 ; 58763.099999999926
166 ; 814578.1492051521 ; 4.0228547727328986E8 ; 1.1623083919849338E8 ; 6.340034648031299E10 ; 59119.239999999925
167 ; 815866.0002380998 ; 4.022943590065205E8 ; 1.1704541734769852E8 ; 6.380263195758628E10 ; 59475.379999999925
168 ; 816333.9702916833 ; 4.023032100942091E8 ; 1.1786128334793663E8 ; 6.4204926316592804E10 ; 59831.519999999924
169 ; 819939.7624352206 ; 4.0231203034273255E8 ; 1.1867761731822832E8 ; 6.460722952668701E10 ; 60187.65999999992
170 ; 821566.3348276847 ; 4.0232081955965626E8 ; 1.1949755708066355E8 ; 6.500954155702975E10 ; 60543.79999999992
171 ; 824253.8802850132 ; 4.023295775537201E8 ; 1.2031912341549124E8 ; 6.54118623765894E10 ; 60899.93999999992
172 ; 826077.5355829768 ; 4.023383041348243E8 ; 1.2114337729577625E8 ; 6.581419195414312E10 ; 61256.07999999992
173 ; 825674.376988898 ; 4.023469991140168E8 ; 1.2196945483135922E8 ; 6.621653025827795E10 ; 61612.21999999992
174 ; 827500.5449832019 ; 4.0235566230348086E8 ; 1.2279512920834813E8 ; 6.661887725739196E10 ; 61968.35999999992
175 ; 832757.5306913368 ; 4.023642935165231E8 ; 1.2362262975333133E8 ; 6.702123291969544E10 ; 62324.49999999992
176 ; 833929.6446236252 ; 4.023728925675621E8 ; 1.2445538728402267E8 ; 6.742359721321197E10 ; 62680.63999999992
177 ; 836153.8979422606 ; 4.0238145927211726E8 ; 1.252893169286463E8 ; 6.7825970105779526E10 ; 63036.77999999992
